data,data2,gyro
500,-0.074193548,1
508,-0.022580645,1
485,-0.170967742,1
508,-0.022580645,1
505,-0.041935484,1
483,-0.183870968,2
500,-0.074193548,2
504,-0.048387097,1
502,-0.061290323,1
506,-0.035483871,1
521,0.061290323,1
498,-0.087096774,0
502,-0.061290323,0
509,-0.016129032,0
508,-0.022580645,0
502,-0.061290323,0
516,0.029032258,0
498,-0.087096774,0
503,-0.05483871,0
503,-0.05483871,0
508,-0.022580645,0
503,-0.05483871,0
496,-0.1,0
536,0.158064516,0
496,-0.1,0
501,-0.067741935,0
494,-0.112903226,0
491,-0.132258065,0
452,-0.383870968,0
504,-0.048387097,0
503,-0.05483871,0
495,-0.106451613,0
501,-0.067741935,0
504,-0.048387097,0
508,-0.022580645,0
501,-0.067741935,0
522,0.067741935,0
504,-0.048387097,0
479,-0.209677419,0
503,-0.05483871,0
511,-0.003225806,0
523,0.074193548,-1
499,-0.080645161,-1
481,-0.196774194,-1
501,-0.067741935,-1
500,-0.074193548,0
510,-0.009677419,0
506,-0.035483871,0
492,-0.125806452,0
508,-0.022580645,0
504,-0.048387097,0
518,0.041935484,1
492,-0.125806452,1
501,-0.067741935,1
510,-0.009677419,1
495,-0.106451613,1
508,-0.022580645,1
490,-0.138709677,1
494,-0.112903226,1
501,-0.067741935,1
562,0.325806452,1
474,-0.241935484,0
507,-0.029032258,0
500,-0.074193548,0
492,-0.125806452,0
496,-0.1,0
473,-0.248387097,0
517,0.035483871,0
496,-0.1,0
495,-0.106451613,0
491,-0.132258065,0
530,0.119354839,0
503,-0.05483871,0
530,0.119354839,0
492,-0.125806452,0
514,0.016129032,0
510,-0.009677419,0
492,-0.125806452,0
497,-0.093548387,0
543,0.203225806,0
508,-0.022580645,0
514,0.016129032,0
504,-0.048387097,0
503,-0.05483871,0
467,-0.287096774,0
480,-0.203225806,0
504,-0.048387097,0
514,0.016129032,0
510,-0.009677419,0
511,-0.003225806,1
506,-0.035483871,1
544,0.209677419,1
508,-0.022580645,0
467,-0.287096774,0
512,0.003225806,0
518,0.041935484,-1
495,-0.106451613,-4
493,-0.119354839,-9
512,0.003225806,-16
451,-0.390322581,-25
494,-0.112903226,-32
535,0.151612903,-40
510,-0.009677419,-48
483,-0.183870968,-57
489,-0.14516129,-69
523,0.074193548,-82
534,0.14516129,-94
533,0.138709677,-110
527,0.1,-117
504,-0.048387097,-117
532,0.132258065,-117
501,-0.067741935,-126
534,0.14516129,121
477,-0.222580645,122
500,-0.074193548,-126
462,-0.319354839,-127
559,0.306451613,126
538,0.170967742,121
502,-0.061290323,122
414,-0.629032258,-124
621,0.706451613,-123
540,0.183870968,124
455,-0.364516129,122
476,-0.229032258,126
550,0.248387097,123
559,0.306451613,121
581,0.448387097,114
533,0.138709677,111
459,-0.338709677,115
625,0.732258065,117
511,-0.003225806,115
402,-0.706451613,107
519,0.048387097,111
586,0.480645161,126
541,0.190322581,-117
481,-0.196774194,-113
590,0.506451613,-115
545,0.216129032,-107
398,-0.732258065,-88
486,-0.164516129,-66
568,0.364516129,-60
533,0.138709677,-39
503,-0.05483871,-3
468,-0.280645161,85
527,0.1,110
533,0.138709677,118
511,-0.003225806,121
493,-0.119354839,122
540,0.183870968,-123
542,0.196774194,-115
501,-0.067741935,-108
519,0.048387097,-104
545,0.216129032,-101
555,0.280645161,-101
530,0.119354839,-101
521,0.061290323,-102
516,0.029032258,-104
531,0.125806452,-105
510,-0.009677419,-105
517,0.035483871,-107
522,0.067741935,-110
517,0.035483871,-114
559,0.306451613,-116
531,0.125806452,-116
497,-0.093548387,-114
445,-0.429032258,-113
535,0.151612903,-112
500,-0.074193548,-111
491,-0.132258065,-108
518,0.041935484,-106
523,0.074193548,-102
462,-0.319354839,-101
417,-0.609677419,-102
505,-0.041935484,-103
524,0.080645161,-102
527,0.1,-103
496,-0.1,-104
500,-0.074193548,-106
518,0.041935484,-107
532,0.132258065,-107
515,0.022580645,-110
508,-0.022580645,-116
500,-0.074193548,-122
515,0.022580645,-127
521,0.061290323,126
505,-0.041935484,123
499,-0.080645161,121
521,0.061290323,118
537,0.164516129,117
544,0.209677419,116
520,0.05483871,114
527,0.1,111
543,0.203225806,104
536,0.158064516,98
505,-0.041935484,92
499,-0.080645161,91
522,0.067741935,86
498,-0.087096774,82
512,0.003225806,79
507,-0.029032258,76
534,0.14516129,71
524,0.080645161,63
498,-0.087096774,55
534,0.14516129,-3
500,-0.074193548,-22
499,-0.080645161,-37
564,0.338709677,-50
515,0.022580645,-62
495,-0.106451613,-76
492,-0.125806452,-93
533,0.138709677,-107
527,0.1,-113
486,-0.164516129,-118
496,-0.1,-128
485,-0.170967742,121
573,0.396774194,115
363,-0.958064516,111
571,0.383870968,108
545,0.216129032,94
557,0.293548387,92
517,0.035483871,95
516,0.029032258,99
549,0.241935484,107
488,-0.151612903,109
564,0.338709677,104
353,-1.022580645,106
644,0.85483871,112
508,-0.022580645,107
533,0.138709677,91
462,-0.319354839,85
474,-0.241935484,89
458,-0.34516129,92
591,0.512903226,91
581,0.448387097,94
523,0.074193548,106
504,-0.048387097,122
575,0.409677419,120
471,-0.261290323,115
419,-0.596774194,115
578,0.429032258,123
608,0.622580645,-122
388,-0.796774194,-116
440,-0.461290323,-116
637,0.809677419,-95
525,0.087096774,-68
425,-0.558064516,-42
547,0.229032258,-22
587,0.487096774,0
508,-0.022580645,72
489,-0.14516129,94
543,0.203225806,112
540,0.183870968,122
506,-0.035483871,124
503,-0.05483871,127
532,0.132258065,-121
528,0.106451613,-110
498,-0.087096774,-99
533,0.138709677,-89
506,-0.035483871,-84
523,0.074193548,-77
497,-0.093548387,-71
509,-0.016129032,-68
517,0.035483871,-67
499,-0.080645161,-67
474,-0.241935484,-67
528,0.106451613,-65
515,0.022580645,-64
510,-0.009677419,-62
463,-0.312903226,-64
520,0.05483871,-67
508,-0.022580645,-70
478,-0.216129032,-72
517,0.035483871,-73
512,0.003225806,-73
486,-0.164516129,-75
520,0.05483871,-78
536,0.158064516,-83
489,-0.14516129,-86
477,-0.222580645,-85
527,0.1,-86
520,0.05483871,-89
524,0.080645161,-95
518,0.041935484,-100
511,-0.003225806,-105
511,-0.003225806,-109
433,-0.506451613,-114
569,0.370967742,-121
571,0.383870968,-127
533,0.138709677,124
504,-0.048387097,121
505,-0.041935484,118
526,0.093548387,113
507,-0.029032258,110
507,-0.029032258,109
518,0.041935484,109
541,0.190322581,108
536,0.158064516,107
516,0.029032258,104
517,0.035483871,99
542,0.196774194,97
498,-0.087096774,91
506,-0.035483871,87
492,-0.125806452,84
520,0.05483871,81
518,0.041935484,79
500,-0.074193548,75
515,0.022580645,71
508,-0.022580645,62
535,0.151612903,54
510,-0.009677419,-5
480,-0.203225806,-13
519,0.048387097,-23
505,-0.041935484,-34
515,0.022580645,-44
509,-0.016129032,-51
497,-0.093548387,-68
519,0.048387097,-87
508,-0.022580645,-104
530,0.119354839,-116
549,0.241935484,123
553,0.267741935,101
530,0.119354839,84
571,0.383870968,79
480,-0.203225806,84
526,0.093548387,89
576,0.416129032,88
478,-0.216129032,92
446,-0.422580645,96
491,-0.132258065,96
602,0.583870968,101
468,-0.280645161,102
363,-0.958064516,97
583,0.461290323,97
548,0.235483871,98
446,-0.422580645,96
514,0.016129032,96
490,-0.138709677,97
470,-0.267741935,96
490,-0.138709677,102
405,-0.687096774,111
486,-0.164516129,113
568,0.364516129,116
416,-0.616129032,125
518,0.041935484,-119
550,0.248387097,-114
553,0.267741935,-112
507,-0.029032258,-106
419,-0.596774194,-102
489,-0.14516129,-87
643,0.848387097,-83
533,0.138709677,-73
425,-0.558064516,-55
567,0.358064516,-34
572,0.390322581,-13
526,0.093548387,55
500,-0.074193548,81
531,0.125806452,94
521,0.061290323,103
518,0.041935484,112
523,0.074193548,118
525,0.087096774,124
520,0.05483871,-126
532,0.132258065,-119
504,-0.048387097,-106
524,0.080645161,-98
513,0.009677419,-91
511,-0.003225806,-90
531,0.125806452,-89
498,-0.087096774,-88
511,-0.003225806,-87
496,-0.1,-85
505,-0.041935484,-84
511,-0.003225806,-84
519,0.048387097,-85
501,-0.067741935,-86
497,-0.093548387,-85
458,-0.34516129,-84
472,-0.25483871,-83
482,-0.190322581,-83
535,0.151612903,-86
506,-0.035483871,-93
522,0.067741935,-98
495,-0.106451613,-103
489,-0.14516129,-106
501,-0.067741935,-108
524,0.080645161,-112
536,0.158064516,-116
480,-0.203225806,-118
537,0.164516129,-119
524,0.080645161,-122
472,-0.25483871,-125
551,0.25483871,-128
524,0.080645161,124
513,0.009677419,120
536,0.158064516,117
545,0.216129032,115
477,-0.222580645,114
512,0.003225806,112
542,0.196774194,110
534,0.14516129,109
489,-0.14516129,108
520,0.05483871,108
527,0.1,109
510,-0.009677419,109
501,-0.067741935,109
518,0.041935484,108
517,0.035483871,107
523,0.074193548,105
511,-0.003225806,103
500,-0.074193548,101
508,-0.022580645,99
539,0.177419355,97
534,0.14516129,94
519,0.048387097,89
541,0.190322581,83
505,-0.041935484,76
513,0.009677419,67
522,0.067741935,56
514,0.016129032,-12
541,0.190322581,-25
480,-0.203225806,-38
511,-0.003225806,-51
514,0.016129032,-63
521,0.061290323,-74
488,-0.151612903,-88
516,0.029032258,-103
552,0.261290323,-117
495,-0.106451613,124
517,0.035483871,99
513,0.009677419,87
519,0.048387097,81
437,-0.480645161,77
529,0.112903226,78
562,0.325806452,83
535,0.151612903,81
522,0.067741935,80
542,0.196774194,83
425,-0.558064516,85
437,-0.480645161,79
521,0.061290323,79
531,0.125806452,92
438,-0.474193548,103
530,0.119354839,106
506,-0.035483871,110
555,0.280645161,118
389,-0.790322581,-126
505,-0.041935484,-126
536,0.158064516,125
536,0.158064516,121
531,0.125806452,127
637,0.809677419,-123
476,-0.229032258,-121
441,-0.45483871,126
635,0.796774194,-117
436,-0.487096774,-93
524,0.080645161,-80
469,-0.274193548,-88
634,0.790322581,-96
544,0.209677419,-92
407,-0.674193548,-66
610,0.635483871,-62
542,0.196774194,-62
398,-0.732258065,-63
589,0.5,-55
509,-0.016129032,-34
512,0.003225806,-14
515,0.022580645,54
515,0.022580645,72
484,-0.177419355,94
500,-0.074193548,116
520,0.05483871,-122
518,0.041935484,-114
515,0.022580645,-111
483,-0.183870968,-110
523,0.074193548,-108
530,0.119354839,-101
511,-0.003225806,-84
469,-0.274193548,-73
543,0.203225806,-63
527,0.1,-55
480,-0.203225806,-51
512,0.003225806,-51
520,0.05483871,-53
481,-0.196774194,-56
504,-0.048387097,-57
527,0.1,-58
514,0.016129032,-61
490,-0.138709677,-66
500,-0.074193548,-70
526,0.093548387,-72
451,-0.390322581,-72
491,-0.132258065,-74
541,0.190322581,-78
470,-0.267741935,-82
497,-0.093548387,-83
442,-0.448387097,-84
517,0.035483871,-88
550,0.248387097,-95
494,-0.112903226,-103
518,0.041935484,-110
528,0.106451613,-119
531,0.125806452,-124
496,-0.1,-128
501,-0.067741935,126
527,0.1,124
529,0.112903226,121
499,-0.080645161,118
511,-0.003225806,113
517,0.035483871,111
508,-0.022580645,108
501,-0.067741935,105
519,0.048387097,101
512,0.003225806,97
528,0.106451613,95
516,0.029032258,93
615,0.667741935,93
487,-0.158064516,93
508,-0.022580645,93
509,-0.016129032,93
525,0.087096774,92
506,-0.035483871,91
497,-0.093548387,87
499,-0.080645161,83
539,0.177419355,76
542,0.196774194,60
539,0.177419355,-3
532,0.132258065,-18
525,0.087096774,-31
522,0.067741935,-43
486,-0.164516129,-61
510,-0.009677419,-81
522,0.067741935,-102
508,-0.022580645,-119
505,-0.041935484,115
535,0.151612903,93
487,-0.158064516,86
524,0.080645161,87
492,-0.125806452,83
502,-0.061290323,81
490,-0.138709677,87
452,-0.383870968,93
534,0.14516129,101
476,-0.229032258,103
549,0.241935484,103
448,-0.409677419,104
471,-0.261290323,106
470,-0.267741935,104
492,-0.125806452,102
429,-0.532258065,92
587,0.487096774,92
487,-0.158064516,103
556,0.287096774,114
512,0.003225806,113
553,0.267741935,110
509,-0.016129032,112
364,-0.951612903,127
458,-0.34516129,-127
628,0.751612903,127
570,0.377419355,125
400,-0.719354839,127
501,-0.067741935,-122
559,0.306451613,-120
392,-0.770967742,-118
406,-0.680645161,-110
604,0.596774194,-90
429,-0.532258065,-67
465,-0.3,-62
574,0.403225806,-76
541,0.190322581,-82
500,-0.074193548,-72
477,-0.222580645,-50
555,0.280645161,-50
522,0.067741935,-60
418,-0.603225806,-54
540,0.183870968,-31
563,0.332258065,2
504,-0.048387097,80
504,-0.048387097,96
496,-0.1,103
511,-0.003225806,110
486,-0.164516129,118
518,0.041935484,-126
486,-0.164516129,-116
510,-0.009677419,-109
514,0.016129032,-105
525,0.087096774,-101
463,-0.312903226,-99
523,0.074193548,-95
522,0.067741935,-92
511,-0.003225806,-87
512,0.003225806,-80
513,0.009677419,-74
532,0.132258065,-68
509,-0.016129032,-63
519,0.048387097,-56
547,0.229032258,-53
523,0.074193548,-48
473,-0.248387097,-48
468,-0.280645161,-49
512,0.003225806,-50
504,-0.048387097,-51
538,0.170967742,-52
541,0.190322581,-54
525,0.087096774,-61
494,-0.112903226,-65
495,-0.106451613,-68
507,-0.029032258,-71
541,0.190322581,-73
520,0.05483871,-77
480,-0.203225806,-83
508,-0.022580645,-89
550,0.248387097,-98
519,0.048387097,-103
484,-0.177419355,-110
497,-0.093548387,-116
540,0.183870968,-121
470,-0.267741935,-124
530,0.119354839,-125
534,0.14516129,126
515,0.022580645,123
509,-0.016129032,117
506,-0.035483871,114
517,0.035483871,112
491,-0.132258065,110
530,0.119354839,108
490,-0.138709677,106
487,-0.158064516,103
515,0.022580645,101
510,-0.009677419,100
546,0.222580645,98
514,0.016129032,94
518,0.041935484,89
505,-0.041935484,85
512,0.003225806,81
546,0.222580645,75
505,-0.041935484,64
516,0.029032258,57
525,0.087096774,0
498,-0.087096774,-10
509,-0.016129032,-23
525,0.087096774,-36
519,0.048387097,-47
482,-0.190322581,-66
508,-0.022580645,-72
553,0.267741935,-101
512,0.003225806,126
512,0.003225806,103
521,0.061290323,90
530,0.119354839,83
515,0.022580645,76
489,-0.14516129,70
520,0.05483871,75
484,-0.177419355,83
533,0.138709677,82
460,-0.332258065,80
450,-0.396774194,85
513,0.009677419,94
449,-0.403225806,97
485,-0.170967742,92
496,-0.1,93
520,0.05483871,94
483,-0.183870968,97
539,0.177419355,98
522,0.067741935,90
486,-0.164516129,87
559,0.306451613,94
578,0.429032258,112
409,-0.661290323,120
528,0.106451613,123
484,-0.177419355,122
382,-0.835483871,126
460,-0.332258065,-120
435,-0.493548387,-112
527,0.1,-118
498,-0.087096774,-125
443,-0.441935484,-117
576,0.416129032,-98
511,-0.003225806,-90
562,0.325806452,-98
503,-0.05483871,-109
478,-0.216129032,-105
471,-0.261290323,-79
494,-0.112903226,-48
533,0.138709677,-38
536,0.158064516,-48
481,-0.196774194,-48
491,-0.132258065,-24
541,0.190322581,65
508,-0.022580645,97
498,-0.087096774,108
565,0.34516129,111
534,0.14516129,116
515,0.022580645,125
523,0.074193548,-119
499,-0.080645161,-108
509,-0.016129032,-101
506,-0.035483871,-98
516,0.029032258,-98
519,0.048387097,-95
501,-0.067741935,-87
503,-0.05483871,-80
524,0.080645161,-77
483,-0.183870968,-75
523,0.074193548,-72
512,0.003225806,-69
542,0.196774194,-65
532,0.132258065,-63
510,-0.009677419,-60
462,-0.319354839,-57
512,0.003225806,-55
500,-0.074193548,-54
504,-0.048387097,-53
507,-0.029032258,-53
527,0.1,-52
511,-0.003225806,-55
479,-0.209677419,-58
479,-0.209677419,-63
535,0.151612903,-67
534,0.14516129,-70
512,0.003225806,-75
495,-0.106451613,-82
505,-0.041935484,-92
528,0.106451613,-102
500,-0.074193548,-109
526,0.093548387,-116
513,0.009677419,-118
503,-0.05483871,-119
512,0.003225806,-120
514,0.016129032,-121
529,0.112903226,-122
504,-0.048387097,-123
512,0.003225806,-128
520,0.05483871,124
514,0.016129032,120
532,0.132258065,116
529,0.112903226,112
512,0.003225806,109
547,0.229032258,106
510,-0.009677419,102
498,-0.087096774,99
503,-0.05483871,96
519,0.048387097,91
519,0.048387097,85
487,-0.158064516,78
533,0.138709677,71
472,-0.25483871,63
521,0.061290323,55
525,0.087096774,-2
533,0.138709677,-15
542,0.196774194,-26
525,0.087096774,-39
497,-0.093548387,-51
571,0.383870968,-60
530,0.119354839,-67
514,0.016129032,-76
470,-0.267741935,-90
530,0.119354839,-102
529,0.112903226,-116
493,-0.119354839,127
515,0.022580645,113
556,0.287096774,98
489,-0.14516129,84
526,0.093548387,80
485,-0.170967742,83
470,-0.267741935,83
532,0.132258065,78
474,-0.241935484,74
587,0.487096774,77
557,0.293548387,87
563,0.332258065,97
523,0.074193548,101
604,0.596774194,99
500,-0.074193548,99
541,0.190322581,98
479,-0.209677419,100
514,0.016129032,98
452,-0.383870968,94
506,-0.035483871,101
360,-0.977419355,114
374,-0.887096774,119
543,0.203225806,112
461,-0.325806452,113
375,-0.880645161,122
502,-0.061290323,-122
626,0.738709677,-114
442,-0.448387097,-106
460,-0.332258065,-100
560,0.312903226,-93
605,0.603225806,-88
517,0.035483871,-79
298,-1.377419355,-71
557,0.293548387,-70
546,0.222580645,-73
487,-0.158064516,-71
495,-0.106451613,-57
574,0.403225806,-37
507,-0.029032258,-11
532,0.132258065,0
525,0.087096774,59
502,-0.061290323,68
507,-0.029032258,79
467,-0.287096774,92
485,-0.170967742,106
517,0.035483871,125
519,0.048387097,-121
517,0.035483871,-114
516,0.029032258,-108
501,-0.067741935,-101
519,0.048387097,-93
545,0.216129032,-84
523,0.074193548,-77
538,0.170967742,-68
510,-0.009677419,-63
519,0.048387097,-59
511,-0.003225806,-58
516,0.029032258,-57
511,-0.003225806,-56
528,0.106451613,-56
497,-0.093548387,-56
517,0.035483871,-56
510,-0.009677419,-57
492,-0.125806452,-57
480,-0.203225806,-57
522,0.067741935,-59
553,0.267741935,-62
506,-0.035483871,-64
506,-0.035483871,-67
491,-0.132258065,-70
505,-0.041935484,-76
530,0.119354839,-79
510,-0.009677419,-83
493,-0.119354839,-87
510,-0.009677419,-91
544,0.209677419,-95
491,-0.132258065,-99
505,-0.041935484,-108
505,-0.041935484,-115
537,0.164516129,-120
520,0.05483871,-124
509,-0.016129032,-126
507,-0.029032258,126
553,0.267741935,121
551,0.25483871,115
521,0.061290323,113
502,-0.061290323,110
527,0.1,109
504,-0.048387097,108
508,-0.022580645,107
516,0.029032258,105
526,0.093548387,102
519,0.048387097,98
513,0.009677419,94
520,0.05483871,88
521,0.061290323,84
530,0.119354839,80
532,0.132258065,75
524,0.080645161,71
518,0.041935484,67
510,-0.009677419,62
497,-0.093548387,1
540,0.183870968,-8
510,-0.009677419,-21
499,-0.080645161,-33
538,0.170967742,-45
502,-0.061290323,-57
499,-0.080645161,-70
526,0.093548387,-82
508,-0.022580645,-98
521,0.061290323,-103
480,-0.203225806,-116
539,0.177419355,-126
510,-0.009677419,121
493,-0.119354839,112
534,0.14516129,100
550,0.248387097,87
531,0.125806452,81
455,-0.364516129,78
553,0.267741935,75
506,-0.035483871,83
500,-0.074193548,99
511,-0.003225806,105
557,0.293548387,100
578,0.429032258,95
612,0.648387097,103
476,-0.229032258,110
541,0.190322581,110
544,0.209677419,98
390,-0.783870968,89
582,0.45483871,84
564,0.338709677,84
494,-0.112903226,82
496,-0.1,66
541,0.190322581,66
413,-0.635483871,81
407,-0.674193548,92
490,-0.138709677,102
470,-0.267741935,104
430,-0.525806452,107
534,0.14516129,-122
417,-0.609677419,-109
453,-0.377419355,-85
654,0.919354839,-91
528,0.106451613,-93
448,-0.409677419,-83
542,0.196774194,-69
598,0.558064516,-63
561,0.319354839,-62
478,-0.216129032,-64
441,-0.45483871,-60
566,0.351612903,-46
419,-0.596774194,-31
502,-0.061290323,-28
551,0.25483871,-37
552,0.261290323,-37
502,-0.061290323,-13
523,0.074193548,90
527,0.1,114
548,0.235483871,120
528,0.106451613,113
519,0.048387097,105
528,0.106451613,104
520,0.05483871,111
491,-0.132258065,120
524,0.080645161,-125
529,0.112903226,-108
532,0.132258065,-94
514,0.016129032,-80
522,0.067741935,-67
529,0.112903226,-56
503,-0.05483871,-45
480,-0.203225806,-38
520,0.05483871,-33
475,-0.235483871,-29
475,-0.235483871,-28
471,-0.261290323,-30
474,-0.241935484,-32
527,0.1,-34
455,-0.364516129,-35
509,-0.016129032,-37
514,0.016129032,-42
520,0.05483871,-46
487,-0.158064516,-48
522,0.067741935,-51
529,0.112903226,-55
514,0.016129032,-62
492,-0.125806452,-67
470,-0.267741935,-72
528,0.106451613,-78
540,0.183870968,-81
497,-0.093548387,-90
528,0.106451613,-96
506,-0.035483871,-102
484,-0.177419355,-107
487,-0.158064516,-114
499,-0.080645161,-122
503,-0.05483871,127
516,0.029032258,119
513,0.009677419,116
557,0.293548387,114
559,0.306451613,112
513,0.009677419,110
508,-0.022580645,107
498,-0.087096774,103
522,0.067741935,100
520,0.05483871,95
500,-0.074193548,92
512,0.003225806,89
518,0.041935484,86
513,0.009677419,83
543,0.203225806,80
510,-0.009677419,77
506,-0.035483871,73
504,-0.048387097,72
469,-0.274193548,66
532,0.132258065,63
543,0.203225806,59
523,0.074193548,55
500,-0.074193548,0
517,0.035483871,-5
516,0.029032258,-13
502,-0.061290323,-36
491,-0.132258065,-51
473,-0.248387097,-55
566,0.351612903,-60
485,-0.170967742,-74
518,0.041935484,-81
499,-0.080645161,-83
529,0.112903226,-92
497,-0.093548387,-120
513,0.009677419,127
513,0.009677419,124
513,0.009677419,116
537,0.164516129,107
481,-0.196774194,99
487,-0.158064516,93
549,0.241935484,102
515,0.022580645,108
477,-0.222580645,101
521,0.061290323,99
447,-0.416129032,101
540,0.183870968,101
532,0.132258065,101
440,-0.461290323,103
494,-0.112903226,101
524,0.080645161,97
428,-0.538709677,111
585,0.474193548,114
441,-0.45483871,107
384,-0.822580645,98
542,0.196774194,96
489,-0.14516129,104
420,-0.590322581,112
566,0.351612903,107
554,0.274193548,103
492,-0.125806452,111
384,-0.822580645,-125
568,0.364516129,-111
491,-0.132258065,-109
383,-0.829032258,-119
621,0.706451613,127
547,0.229032258,-116
460,-0.332258065,-98
532,0.132258065,-84
603,0.590322581,-78
486,-0.164516129,-65
482,-0.190322581,-42
547,0.229032258,-13
521,0.061290323,63
490,-0.138709677,80
509,-0.016129032,88
536,0.158064516,90
525,0.087096774,96
500,-0.074193548,105
499,-0.080645161,116
506,-0.035483871,-128
521,0.061290323,-117
517,0.035483871,-104
458,-0.34516129,-95
489,-0.14516129,-85
456,-0.358064516,-78
518,0.041935484,-71
488,-0.151612903,-66
521,0.061290323,-64
522,0.067741935,-66
518,0.041935484,-69
533,0.138709677,-71
492,-0.125806452,-73
539,0.177419355,-73
530,0.119354839,-72
571,0.383870968,-71
505,-0.041935484,-72
479,-0.209677419,-73
510,-0.009677419,-75
513,0.009677419,-78
500,-0.074193548,-80
509,-0.016129032,-82
515,0.022580645,-83
508,-0.022580645,-85
527,0.1,-88
509,-0.016129032,-92
498,-0.087096774,-100
513,0.009677419,-105
511,-0.003225806,-109
518,0.041935484,-113
536,0.158064516,-117
517,0.035483871,-120
503,-0.05483871,-122
497,-0.093548387,-123
524,0.080645161,-124
500,-0.074193548,-125
507,-0.029032258,-125
518,0.041935484,-125
521,0.061290323,-125
500,-0.074193548,-126
504,-0.048387097,127
521,0.061290323,125
525,0.087096774,122
509,-0.016129032,120
517,0.035483871,117
524,0.080645161,114
525,0.087096774,110
508,-0.022580645,107
532,0.132258065,104
522,0.067741935,101
508,-0.022580645,97
509,-0.016129032,95
497,-0.093548387,92
506,-0.035483871,88
509,-0.016129032,85
552,0.261290323,81
539,0.177419355,77
512,0.003225806,71
513,0.009677419,63
535,0.151612903,60
508,-0.022580645,1
466,-0.293548387,-7
525,0.087096774,-16
492,-0.125806452,-26
546,0.222580645,-37
485,-0.170967742,-51
513,0.009677419,-62
496,-0.1,-70
552,0.261290323,-85
540,0.183870968,-111
469,-0.274193548,119
484,-0.177419355,100
535,0.151612903,95
503,-0.05483871,98
499,-0.080645161,91
544,0.209677419,72
421,-0.583870968,78
529,0.112903226,89
456,-0.358064516,92
620,0.7,82
493,-0.119354839,76
592,0.519354839,76
514,0.016129032,79
613,0.65483871,83
488,-0.151612903,79
434,-0.5,68
530,0.119354839,67
363,-0.958064516,70
496,-0.1,72
564,0.338709677,71
490,-0.138709677,65
587,0.487096774,89
466,-0.293548387,115
580,0.441935484,-128
498,-0.087096774,-118
479,-0.209677419,-107
467,-0.287096774,-94
482,-0.190322581,-91
480,-0.203225806,-101
540,0.183870968,-103
527,0.1,-90
505,-0.041935484,-72
581,0.448387097,-65
523,0.074193548,-62
456,-0.358064516,-64
491,-0.132258065,-64
531,0.125806452,-50
595,0.538709677,-37
496,-0.1,-29
540,0.183870968,-26
543,0.203225806,-23
548,0.235483871,-13
523,0.074193548,1
502,-0.061290323,69
504,-0.048387097,85
541,0.190322581,103
546,0.222580645,111
511,-0.003225806,119
513,0.009677419,126
503,-0.05483871,-124
499,-0.080645161,-119
507,-0.029032258,-114
518,0.041935484,-109
519,0.048387097,-96
520,0.05483871,-88
507,-0.029032258,-81
491,-0.132258065,-76
487,-0.158064516,-73
520,0.05483871,-71
517,0.035483871,-72
518,0.041935484,-73
499,-0.080645161,-73
474,-0.241935484,-73
435,-0.493548387,-72
469,-0.274193548,-73
483,-0.183870968,-74
453,-0.377419355,-77
511,-0.003225806,-80
501,-0.067741935,-81
509,-0.016129032,-83
530,0.119354839,-85
519,0.048387097,-88
527,0.1,-90
533,0.138709677,-92
501,-0.067741935,-94
502,-0.061290323,-99
526,0.093548387,-104
537,0.164516129,-110
505,-0.041935484,-114
492,-0.125806452,-117
524,0.080645161,-120
545,0.216129032,-124
485,-0.170967742,-128
526,0.093548387,127
533,0.138709677,125
527,0.1,122
483,-0.183870968,118
524,0.080645161,113
510,-0.009677419,108
511,-0.003225806,103
538,0.170967742,100
512,0.003225806,98
525,0.087096774,96
515,0.022580645,96
519,0.048387097,95
512,0.003225806,95
549,0.241935484,95
505,-0.041935484,93
519,0.048387097,92
518,0.041935484,91
512,0.003225806,89
515,0.022580645,87
509,-0.016129032,86
501,-0.067741935,86
529,0.112903226,86
512,0.003225806,87
507,-0.029032258,86
481,-0.196774194,83
499,-0.080645161,76
526,0.093548387,71
547,0.229032258,65
513,0.009677419,56
516,0.029032258,-2
511,-0.003225806,-8
544,0.209677419,-16
492,-0.125806452,-25
546,0.222580645,-35
517,0.035483871,-48
517,0.035483871,-73
465,-0.3,-90
500,-0.074193548,-106
519,0.048387097,-123
512,0.003225806,116
545,0.216129032,100
534,0.14516129,87
521,0.061290323,78
499,-0.080645161,76
522,0.067741935,69
526,0.093548387,56
540,0.183870968,49
505,-0.041935484,55
599,0.564516129,63
566,0.351612903,66
525,0.087096774,64
458,-0.34516129,68
466,-0.293548387,71
489,-0.14516129,66
470,-0.267741935,63
521,0.061290323,63
541,0.190322581,73
574,0.403225806,90
497,-0.093548387,101
453,-0.377419355,107
563,0.332258065,115
424,-0.564516129,-120
500,-0.074193548,-102
507,-0.029032258,-95
414,-0.629032258,-96
576,0.416129032,-94
337,-1.125806452,-84
454,-0.370967742,-84
656,0.932258065,-88
414,-0.629032258,-91
490,-0.138709677,-96
583,0.461290323,-100
523,0.074193548,-92
422,-0.577419355,-73
502,-0.061290323,-44
523,0.074193548,-40
531,0.125806452,-41
511,-0.003225806,-36
521,0.061290323,-19
527,0.1,2
533,0.138709677,72
512,0.003225806,89
512,0.003225806,100
518,0.041935484,110
516,0.029032258,116
505,-0.041935484,125
495,-0.106451613,-120
527,0.1,-112
537,0.164516129,-107
519,0.048387097,-108
510,-0.009677419,-109
533,0.138709677,-107
519,0.048387097,-102
510,-0.009677419,-98
506,-0.035483871,-95
518,0.041935484,-92
513,0.009677419,-88
499,-0.080645161,-84
510,-0.009677419,-81
535,0.151612903,-80
507,-0.029032258,-78
518,0.041935484,-75
493,-0.119354839,-73
506,-0.035483871,-74
490,-0.138709677,-76
479,-0.209677419,-79
464,-0.306451613,-81
471,-0.261290323,-87
523,0.074193548,-90
522,0.067741935,-93
509,-0.016129032,-94
485,-0.170967742,-96
515,0.022580645,-100
469,-0.274193548,-103
505,-0.041935484,-106
571,0.383870968,-107
512,0.003225806,-107
466,-0.293548387,-110
522,0.067741935,-113
554,0.274193548,-116
500,-0.074193548,-118
466,-0.293548387,-120
548,0.235483871,-126
534,0.14516129,125
513,0.009677419,120
497,-0.093548387,117
513,0.009677419,115
522,0.067741935,113
513,0.009677419,110
508,-0.022580645,108
498,-0.087096774,107
534,0.14516129,107
520,0.05483871,107
516,0.029032258,106
552,0.261290323,104
508,-0.022580645,103
509,-0.016129032,102
504,-0.048387097,101
512,0.003225806,99
513,0.009677419,97
515,0.022580645,96
520,0.05483871,94
571,0.383870968,91
537,0.164516129,87
509,-0.016129032,81
501,-0.067741935,74
512,0.003225806,60
531,0.125806452,-3
509,-0.016129032,-18
537,0.164516129,-36
481,-0.196774194,-54
513,0.009677419,-68
543,0.203225806,-81
471,-0.261290323,-95
497,-0.093548387,-108
525,0.087096774,-125
490,-0.138709677,119
527,0.1,105
569,0.370967742,94
476,-0.229032258,88
518,0.041935484,85
504,-0.048387097,86
503,-0.05483871,84
507,-0.029032258,86
530,0.119354839,92
506,-0.035483871,94
529,0.112903226,94
520,0.05483871,98
556,0.287096774,103
542,0.196774194,106
505,-0.041935484,117
504,-0.048387097,121
519,0.048387097,126
598,0.558064516,123
587,0.487096774,118
455,-0.364516129,118
548,0.235483871,118
600,0.570967742,117
360,-0.977419355,119
473,-0.248387097,125
535,0.151612903,-127
521,0.061290323,-120
477,-0.222580645,-115
515,0.022580645,-111
519,0.048387097,-103
389,-0.790322581,-93
468,-0.280645161,-85
509,-0.016129032,-87
561,0.319354839,-91
530,0.119354839,-90
502,-0.061290323,-84
480,-0.203225806,-79
579,0.435483871,-77
518,0.041935484,-72
472,-0.25483871,-66
510,-0.009677419,-64
525,0.087096774,-60
513,0.009677419,-55
514,0.016129032,-45
499,-0.080645161,-28
524,0.080645161,-8
480,-0.203225806,64
486,-0.164516129,86
531,0.125806452,109
512,0.003225806,118
497,-0.093548387,125
502,-0.061290323,-124
501,-0.067741935,-115
522,0.067741935,-104
506,-0.035483871,-92
500,-0.074193548,-83
513,0.009677419,-70
508,-0.022580645,-62
516,0.029032258,-57
523,0.074193548,-53
523,0.074193548,-52
572,0.390322581,-52
528,0.106451613,-53
516,0.029032258,-53
505,-0.041935484,-53
518,0.041935484,-55
514,0.016129032,-58
527,0.1,-62
496,-0.1,-67
511,-0.003225806,-71
508,-0.022580645,-74
496,-0.1,-78
488,-0.151612903,-86
521,0.061290323,-90
518,0.041935484,-92
488,-0.151612903,-92
502,-0.061290323,-94
499,-0.080645161,-96
502,-0.061290323,-101
513,0.009677419,-105
512,0.003225806,-111
499,-0.080645161,-115
505,-0.041935484,-119
505,-0.041935484,-124
525,0.087096774,-128
514,0.016129032,125
523,0.074193548,120
490,-0.138709677,116
482,-0.190322581,114
521,0.061290323,111
518,0.041935484,107
516,0.029032258,104
508,-0.022580645,101
520,0.05483871,98
515,0.022580645,94
516,0.029032258,91
508,-0.022580645,88
496,-0.1,86
508,-0.022580645,85
512,0.003225806,84
532,0.132258065,83
518,0.041935484,82
514,0.016129032,81
507,-0.029032258,80
516,0.029032258,80
566,0.351612903,80
522,0.067741935,82
528,0.106451613,83
504,-0.048387097,84
508,-0.022580645,84
505,-0.041935484,82
511,-0.003225806,80
526,0.093548387,78
515,0.022580645,75
520,0.05483871,73
523,0.074193548,70
507,-0.029032258,64
506,-0.035483871,56
517,0.035483871,-2
477,-0.222580645,-11
444,-0.435483871,-24
513,0.009677419,-35
502,-0.061290323,-47
521,0.061290323,-60
503,-0.05483871,-73
535,0.151612903,-85
504,-0.048387097,-101
519,0.048387097,-123
516,0.029032258,93
515,0.022580645,62
519,0.048387097,41
537,0.164516129,35
537,0.164516129,31
482,-0.190322581,23
558,0.3,13
551,0.25483871,21
487,-0.158064516,36
500,-0.074193548,51
523,0.074193548,58
474,-0.241935484,63
483,-0.183870968,76
523,0.074193548,99
454,-0.370967742,113
576,0.416129032,108
419,-0.596774194,99
412,-0.641935484,99
536,0.158064516,105
530,0.119354839,113
489,-0.14516129,123
370,-0.912903226,-126
643,0.848387097,-115
531,0.125806452,-101
488,-0.151612903,-96
499,-0.080645161,-103
648,0.880645161,-99
436,-0.487096774,-81
447,-0.416129032,-63
536,0.158064516,-64
589,0.5,-80
416,-0.616129032,-91
447,-0.416129032,-83
613,0.65483871,-62
510,-0.009677419,-43
530,0.119354839,-35
507,-0.029032258,-35
564,0.338709677,-33
506,-0.035483871,-24
492,-0.125806452,-7
529,0.112903226,64
517,0.035483871,99
506,-0.035483871,116
506,-0.035483871,-128
512,0.003225806,-120
540,0.183870968,-113
498,-0.087096774,-105
522,0.067741935,-99
510,-0.009677419,-92
505,-0.041935484,-88
505,-0.041935484,-83
525,0.087096774,-76
507,-0.029032258,-70
505,-0.041935484,-66
514,0.016129032,-62
588,0.493548387,-60
483,-0.183870968,-56
489,-0.14516129,-54
466,-0.293548387,-55
465,-0.3,-57
469,-0.274193548,-59
498,-0.087096774,-60
508,-0.022580645,-61
487,-0.158064516,-63
502,-0.061290323,-66
510,-0.009677419,-69
495,-0.106451613,-71
520,0.05483871,-74
490,-0.138709677,-76
477,-0.222580645,-79
484,-0.177419355,-82
503,-0.05483871,-85
516,0.029032258,-90
485,-0.170967742,-94
472,-0.25483871,-99
519,0.048387097,-104
515,0.022580645,-111
503,-0.05483871,-118
530,0.119354839,-123
525,0.087096774,-126
471,-0.261290323,126
504,-0.048387097,125
508,-0.022580645,120
526,0.093548387,117
520,0.05483871,115
508,-0.022580645,114
514,0.016129032,114
521,0.061290323,114
506,-0.035483871,114
518,0.041935484,113
523,0.074193548,110
519,0.048387097,106
528,0.106451613,102
512,0.003225806,97
506,-0.035483871,93
513,0.009677419,90
518,0.041935484,87
502,-0.061290323,84
556,0.287096774,82
515,0.022580645,81
512,0.003225806,78
510,-0.009677419,74
509,-0.016129032,69
497,-0.093548387,62
518,0.041935484,1
505,-0.041935484,-6
521,0.061290323,-13
515,0.022580645,-21
507,-0.029032258,-30
517,0.035483871,-40
512,0.003225806,-49
512,0.003225806,-58
528,0.106451613,-69
489,-0.14516129,-98
497,-0.093548387,-124
497,-0.093548387,106
525,0.087096774,84
516,0.029032258,64
518,0.041935484,51
472,-0.25483871,45
562,0.325806452,48
598,0.558064516,49
446,-0.422580645,48
559,0.306451613,47
606,0.609677419,45
472,-0.25483871,48
411,-0.648387097,57
438,-0.474193548,64
648,0.880645161,78
420,-0.590322581,80
514,0.016129032,77
559,0.306451613,78
478,-0.216129032,90
361,-0.970967742,105
485,-0.170967742,112
436,-0.487096774,115
483,-0.183870968,120
538,0.170967742,126
443,-0.441935484,-123
465,-0.3,-124
549,0.241935484,-124
491,-0.132258065,-121
458,-0.34516129,-110
522,0.067741935,-94
604,0.596774194,-82
495,-0.106451613,-71
478,-0.216129032,-74
534,0.14516129,-77
526,0.093548387,-64
475,-0.235483871,-40
493,-0.119354839,-16
543,0.203225806,1
531,0.125806452,59
483,-0.183870968,62
532,0.132258065,70
482,-0.190322581,81
496,-0.1,93
511,-0.003225806,102
516,0.029032258,109
500,-0.074193548,115
510,-0.009677419,126
493,-0.119354839,-126
517,0.035483871,-111
526,0.093548387,-103
538,0.170967742,-98
518,0.041935484,-94
509,-0.016129032,-91
493,-0.119354839,-88
488,-0.151612903,-85
513,0.009677419,-85
524,0.080645161,-86
554,0.274193548,-87
518,0.041935484,-88
497,-0.093548387,-89
487,-0.158064516,-90
491,-0.132258065,-90
492,-0.125806452,-88
518,0.041935484,-85
507,-0.029032258,-85
523,0.074193548,-85
541,0.190322581,-85
484,-0.177419355,-84
495,-0.106451613,-83
541,0.190322581,-82
524,0.080645161,-86
507,-0.029032258,-87
511,-0.003225806,-90
524,0.080645161,-90
499,-0.080645161,-90
496,-0.1,-91
527,0.1,-92
501,-0.067741935,-94
536,0.158064516,-97
503,-0.05483871,-101
429,-0.532258065,-106
503,-0.05483871,-111
535,0.151612903,-116
543,0.203225806,-120
514,0.016129032,-124
545,0.216129032,-127
486,-0.164516129,126
499,-0.080645161,121
533,0.138709677,118
559,0.306451613,115
498,-0.087096774,113
503,-0.05483871,110
542,0.196774194,106
517,0.035483871,102
491,-0.132258065,96
546,0.222580645,95
539,0.177419355,90
518,0.041935484,88
508,-0.022580645,85
505,-0.041935484,81
508,-0.022580645,75
507,-0.029032258,67
538,0.170967742,59
524,0.080645161,54
469,-0.274193548,-2
522,0.067741935,-13
552,0.261290323,-26
494,-0.112903226,-39
494,-0.112903226,-55
537,0.164516129,-76
500,-0.074193548,-103
507,-0.029032258,115
498,-0.087096774,99
509,-0.016129032,90
522,0.067741935,82
450,-0.396774194,74
529,0.112903226,72
509,-0.016129032,73
517,0.035483871,65
445,-0.429032258,59
536,0.158064516,60
461,-0.325806452,65
553,0.267741935,69
464,-0.306451613,69
476,-0.229032258,73
470,-0.267741935,79
462,-0.319354839,83
551,0.25483871,85
488,-0.151612903,88
524,0.080645161,85
430,-0.525806452,91
531,0.125806452,106
419,-0.596774194,120
440,-0.461290323,118
485,-0.170967742,105
500,-0.074193548,102
490,-0.138709677,124
378,-0.861290323,-118
578,0.429032258,-120
496,-0.1,-128
452,-0.383870968,121
391,-0.777419355,-124
531,0.125806452,-106
497,-0.093548387,-81
464,-0.306451613,-76
503,-0.05483871,-73
559,0.306451613,-67
469,-0.274193548,-54
529,0.112903226,-43
502,-0.061290323,-41
527,0.1,-43
509,-0.016129032,-41
504,-0.048387097,-26
506,-0.035483871,-13
538,0.170967742,-2
537,0.164516129,58
520,0.05483871,70
513,0.009677419,82
513,0.009677419,96
491,-0.132258065,110
460,-0.332258065,127
475,-0.235483871,-121
529,0.112903226,-113
519,0.048387097,-106
520,0.05483871,-98
515,0.022580645,-93
550,0.248387097,-90
499,-0.080645161,-87
520,0.05483871,-85
535,0.151612903,-80
511,-0.003225806,-76
523,0.074193548,-72
515,0.022580645,-70
509,-0.016129032,-69
506,-0.035483871,-67
520,0.05483871,-67
536,0.158064516,-67
504,-0.048387097,-67
516,0.029032258,-69
522,0.067741935,-72
486,-0.164516129,-74
446,-0.422580645,-76
520,0.05483871,-77
569,0.370967742,-78
505,-0.041935484,-82
489,-0.14516129,-86
516,0.029032258,-90
539,0.177419355,-93
503,-0.05483871,-96
501,-0.067741935,-99
552,0.261290323,-102
518,0.041935484,-104
490,-0.138709677,-105
517,0.035483871,-107
525,0.087096774,-110
485,-0.170967742,-114
503,-0.05483871,-117
525,0.087096774,-119
509,-0.016129032,-120
499,-0.080645161,-122
500,-0.074193548,-125
496,-0.1,126
481,-0.196774194,124
468,-0.280645161,122
488,-0.151612903,121
497,-0.093548387,122
503,-0.05483871,122
504,-0.048387097,123
519,0.048387097,123
527,0.1,121
510,-0.009677419,119
509,-0.016129032,116
504,-0.048387097,111
560,0.312903226,107
512,0.003225806,103
498,-0.087096774,99
501,-0.067741935,93
513,0.009677419,89
486,-0.164516129,85
515,0.022580645,79
506,-0.035483871,72
518,0.041935484,64
534,0.14516129,56
569,0.370967742,0
510,-0.009677419,-7
495,-0.106451613,-19
468,-0.280645161,-26
511,-0.003225806,-32
512,0.003225806,-36
531,0.125806452,-42
502,-0.061290323,-51
504,-0.048387097,-61
508,-0.022580645,-70
522,0.067741935,-75
516,0.029032258,-85
510,-0.009677419,-100
501,-0.067741935,-115
535,0.151612903,-124
508,-0.022580645,127
495,-0.106451613,121
504,-0.048387097,113
492,-0.125806452,113
499,-0.080645161,112
485,-0.170967742,104
501,-0.067741935,93
501,-0.067741935,87
466,-0.293548387,88
489,-0.14516129,89
553,0.267741935,86
417,-0.609677419,78
553,0.267741935,86
457,-0.351612903,93
512,0.003225806,92
522,0.067741935,92
435,-0.493548387,92
498,-0.087096774,100
478,-0.216129032,110
500,-0.074193548,114
412,-0.641935484,118
504,-0.048387097,-127
352,-1.029032258,-118
454,-0.370967742,-116
477,-0.222580645,-124
451,-0.390322581,124
456,-0.358064516,126
458,-0.34516129,-121
504,-0.048387097,-114
622,0.712903226,-110
511,-0.003225806,-114
423,-0.570967742,-114
582,0.45483871,-97
541,0.190322581,-70
490,-0.138709677,-66
466,-0.293548387,-64
540,0.183870968,-53
503,-0.05483871,-34
508,-0.022580645,-11
526,0.093548387,59
518,0.041935484,69
519,0.048387097,70
557,0.293548387,70
517,0.035483871,76
522,0.067741935,87
516,0.029032258,101
527,0.1,118
504,-0.048387097,-123
509,-0.016129032,-110
511,-0.003225806,-99
525,0.087096774,-86
516,0.029032258,-79
517,0.035483871,-74
488,-0.151612903,-71
479,-0.209677419,-67
497,-0.093548387,-64
523,0.074193548,-61
524,0.080645161,-58
518,0.041935484,-58
534,0.14516129,-56
510,-0.009677419,-55
505,-0.041935484,-55
492,-0.125806452,-55
470,-0.267741935,-56
527,0.1,-58
475,-0.235483871,-61
493,-0.119354839,-65
534,0.14516129,-71
521,0.061290323,-76
484,-0.177419355,-81
487,-0.158064516,-86
552,0.261290323,-90
543,0.203225806,-93
482,-0.190322581,-95
523,0.074193548,-100
508,-0.022580645,-104
522,0.067741935,-108
503,-0.05483871,-111
512,0.003225806,-115
514,0.016129032,-120
531,0.125806452,-124
498,-0.087096774,-128
496,-0.1,124
503,-0.05483871,119
518,0.041935484,117
521,0.061290323,114
496,-0.1,110
528,0.106451613,106
523,0.074193548,103
515,0.022580645,101
509,-0.016129032,99
519,0.048387097,97
520,0.05483871,96
518,0.041935484,95
504,-0.048387097,95
512,0.003225806,95
527,0.1,95
535,0.151612903,96
525,0.087096774,96
513,0.009677419,94
517,0.035483871,90
505,-0.041935484,84
508,-0.022580645,78
523,0.074193548,70
532,0.132258065,62
497,-0.093548387,53
500,-0.074193548,-5
483,-0.183870968,-16
522,0.067741935,-24
493,-0.119354839,-32
512,0.003225806,-41
484,-0.177419355,-53
526,0.093548387,-68
520,0.05483871,-84
495,-0.106451613,-101
516,0.029032258,126
516,0.029032258,108
521,0.061290323,93
470,-0.267741935,77
529,0.112903226,57
492,-0.125806452,35
461,-0.325806452,17
513,0.009677419,6
525,0.087096774,7
541,0.190322581,10
417,-0.609677419,6
615,0.667741935,6
487,-0.158064516,18
432,-0.512903226,31
528,0.106451613,37
505,-0.041935484,37
491,-0.132258065,37
539,0.177419355,42
489,-0.14516129,58
497,-0.093548387,79
573,0.396774194,96
534,0.14516129,108
578,0.429032258,117
501,-0.067741935,-127
441,-0.45483871,-86
502,-0.061290323,-70
655,0.925806452,-69
414,-0.629032258,-74
559,0.306451613,-78
546,0.222580645,-76
555,0.280645161,-75
545,0.216129032,-68
410,-0.65483871,-52
548,0.235483871,-42
490,-0.138709677,-32
512,0.003225806,-26
503,-0.05483871,-22
504,-0.048387097,-18
492,-0.125806452,-10
512,0.003225806,65
511,-0.003225806,82
520,0.05483871,93
520,0.05483871,98
504,-0.048387097,99
503,-0.05483871,100
471,-0.261290323,106
479,-0.209677419,115
519,0.048387097,125
530,0.119354839,-124
513,0.009677419,-117
506,-0.035483871,-113
524,0.080645161,-108
522,0.067741935,-102
509,-0.016129032,-97
549,0.241935484,-92
525,0.087096774,-89
506,-0.035483871,-88
516,0.029032258,-87
515,0.022580645,-87
519,0.048387097,-88
511,-0.003225806,-90
511,-0.003225806,-92
509,-0.016129032,-93
513,0.009677419,-93
488,-0.151612903,-92
465,-0.3,-92
473,-0.248387097,-93
514,0.016129032,-94
522,0.067741935,-95
491,-0.132258065,-94
515,0.022580645,-94
537,0.164516129,-93
496,-0.1,-94
518,0.041935484,-96
545,0.216129032,-98
523,0.074193548,-100
513,0.009677419,-103
436,-0.487096774,-104
452,-0.383870968,-105
527,0.1,-104
490,-0.138709677,-103
519,0.048387097,-102
510,-0.009677419,-101
506,-0.035483871,-101
500,-0.074193548,-102
503,-0.05483871,-104
517,0.035483871,-106
508,-0.022580645,-109
467,-0.287096774,-113
496,-0.1,-115
523,0.074193548,-118
484,-0.177419355,-123
491,-0.132258065,127
495,-0.106451613,121
525,0.087096774,115
523,0.074193548,107
509,-0.016129032,105
514,0.016129032,98
600,0.570967742,94
529,0.112903226,89
515,0.022580645,84
547,0.229032258,81
506,-0.035483871,78
519,0.048387097,76
519,0.048387097,72
502,-0.061290323,67
502,-0.061290323,63
543,0.203225806,58
531,0.125806452,2
507,-0.029032258,-5
512,0.003225806,-15
515,0.022580645,-27
498,-0.087096774,-42
508,-0.022580645,-52
516,0.029032258,-61
512,0.003225806,-72
517,0.035483871,-83
528,0.106451613,-96
512,0.003225806,-115
499,-0.080645161,119
540,0.183870968,95
533,0.138709677,74
483,-0.183870968,66
537,0.164516129,55
499,-0.080645161,47
513,0.009677419,47
493,-0.119354839,57
456,-0.358064516,60
479,-0.209677419,55
578,0.429032258,59
467,-0.287096774,77
412,-0.641935484,85
541,0.190322581,82
516,0.029032258,74
533,0.138709677,64
466,-0.293548387,63
500,-0.074193548,65
504,-0.048387097,56
320,-1.235483871,50
502,-0.061290323,55
473,-0.248387097,74
479,-0.209677419,99
444,-0.435483871,117
468,-0.280645161,-120
447,-0.416129032,-111
474,-0.241935484,-109
562,0.325806452,-114
554,0.274193548,-116
524,0.080645161,-111
570,0.377419355,-97
580,0.441935484,-78
552,0.261290323,-60
497,-0.093548387,-46
503,-0.05483871,-32
537,0.164516129,-21
505,-0.041935484,-3
533,0.138709677,67
524,0.080645161,87
495,-0.106451613,100
476,-0.229032258,106
518,0.041935484,110
534,0.14516129,119
503,-0.05483871,127
504,-0.048387097,-120
516,0.029032258,-113
496,-0.1,-106
513,0.009677419,-100
543,0.203225806,-96
493,-0.119354839,-90
525,0.087096774,-90
519,0.048387097,-88
509,-0.016129032,-86
511,-0.003225806,-86
509,-0.016129032,-86
519,0.048387097,-87
526,0.093548387,-88
491,-0.132258065,-88
515,0.022580645,-88
494,-0.112903226,-89
503,-0.05483871,-90
509,-0.016129032,-89
523,0.074193548,-88
458,-0.34516129,-86
494,-0.112903226,-85
475,-0.235483871,-85
518,0.041935484,-85
521,0.061290323,-83
519,0.048387097,-82
511,-0.003225806,-79
506,-0.035483871,-77
528,0.106451613,-76
512,0.003225806,-75
512,0.003225806,-76
506,-0.035483871,-76
554,0.274193548,-79
509,-0.016129032,-83
489,-0.14516129,-87
523,0.074193548,-92
487,-0.158064516,-97
517,0.035483871,-102
517,0.035483871,-109
497,-0.093548387,-121
471,-0.261290323,-128
497,-0.093548387,124
498,-0.087096774,120
501,-0.067741935,118
515,0.022580645,117
532,0.132258065,115
520,0.05483871,112
518,0.041935484,105
500,-0.074193548,100
504,-0.048387097,95
519,0.048387097,91
521,0.061290323,87
508,-0.022580645,85
526,0.093548387,84
568,0.364516129,84
533,0.138709677,84
536,0.158064516,83
508,-0.022580645,81
509,-0.016129032,79
535,0.151612903,77
519,0.048387097,75
503,-0.05483871,71
462,-0.319354839,67
502,-0.061290323,63
507,-0.029032258,56
528,0.106451613,2
526,0.093548387,0
526,0.093548387,-6
507,-0.029032258,-13
506,-0.035483871,-21
506,-0.035483871,-28
513,0.009677419,-42
554,0.274193548,-52
506,-0.035483871,-60
514,0.016129032,-70
512,0.003225806,-83
515,0.022580645,-100
504,-0.048387097,-115
520,0.05483871,-128
513,0.009677419,112
554,0.274193548,94
461,-0.325806452,87
483,-0.183870968,72
539,0.177419355,59
483,-0.183870968,58
495,-0.106451613,62
509,-0.016129032,59
594,0.532258065,48
402,-0.706451613,37
385,-0.816129032,43
628,0.751612903,45
391,-0.777419355,43
517,0.035483871,43
492,-0.125806452,52
568,0.364516129,68
415,-0.622580645,86
429,-0.532258065,97
470,-0.267741935,95
535,0.151612903,97
447,-0.416129032,108
467,-0.287096774,123
506,-0.035483871,-123
468,-0.280645161,-111
642,0.841935484,-89
567,0.358064516,-84
522,0.067741935,-78
596,0.54516129,-87
591,0.512903226,-95
415,-0.622580645,-96
439,-0.467741935,-88
578,0.429032258,-73
500,-0.074193548,-58
485,-0.170967742,-38
531,0.125806452,-28
562,0.325806452,-16
461,-0.325806452,0
507,-0.029032258,65
514,0.016129032,79
516,0.029032258,89
510,-0.009677419,96
508,-0.022580645,104
510,-0.009677419,112
528,0.106451613,121
514,0.016129032,-125
513,0.009677419,-116
488,-0.151612903,-109
520,0.05483871,-104
501,-0.067741935,-95
518,0.041935484,-88
511,-0.003225806,-81
495,-0.106451613,-77
514,0.016129032,-74
537,0.164516129,-71
518,0.041935484,-69
526,0.093548387,-67
529,0.112903226,-68
554,0.274193548,-69
505,-0.041935484,-71
517,0.035483871,-72
512,0.003225806,-71
509,-0.016129032,-71
514,0.016129032,-70
493,-0.119354839,-69
485,-0.170967742,-68
456,-0.358064516,-68
527,0.1,-70
502,-0.061290323,-72
503,-0.05483871,-74
450,-0.396774194,-77
491,-0.132258065,-82
522,0.067741935,-87
455,-0.364516129,-93
469,-0.274193548,-102
529,0.112903226,-108
520,0.05483871,-114
503,-0.05483871,-120
496,-0.1,-126
533,0.138709677,125
543,0.203225806,122
505,-0.041935484,119
511,-0.003225806,119
512,0.003225806,116
514,0.016129032,113
545,0.216129032,111
512,0.003225806,110
539,0.177419355,108
530,0.119354839,107
521,0.061290323,106
510,-0.009677419,104
507,-0.029032258,102
513,0.009677419,100
516,0.029032258,99
518,0.041935484,98
491,-0.132258065,97
519,0.048387097,94
515,0.022580645,89
493,-0.119354839,82
508,-0.022580645,77
526,0.093548387,71
491,-0.132258065,64
533,0.138709677,57
512,0.003225806,53
501,-0.067741935,1
522,0.067741935,-5
514,0.016129032,-10
515,0.022580645,-21
505,-0.041935484,-24
526,0.093548387,-28
459,-0.338709677,-37
477,-0.222580645,-54
533,0.138709677,-76
523,0.074193548,-96
522,0.067741935,-108
522,0.067741935,-122
472,-0.25483871,122
510,-0.009677419,109
480,-0.203225806,99
473,-0.248387097,85
517,0.035483871,69
524,0.080645161,59
552,0.261290323,52
446,-0.422580645,42
508,-0.022580645,29
568,0.364516129,16
483,-0.183870968,10
531,0.125806452,15
457,-0.351612903,26
598,0.558064516,36
497,-0.093548387,47
479,-0.209677419,51
479,-0.209677419,80
477,-0.222580645,103
518,0.041935484,121
472,-0.25483871,-121
577,0.422580645,-113
467,-0.287096774,-107
481,-0.196774194,-102
493,-0.119354839,-97
508,-0.022580645,-97
514,0.016129032,-97
543,0.203225806,-91
444,-0.435483871,-87
492,-0.125806452,-83
533,0.138709677,-80
556,0.287096774,-71
512,0.003225806,-60
473,-0.248387097,-48
525,0.087096774,-41
537,0.164516129,-41
500,-0.074193548,-45
487,-0.158064516,-47
516,0.029032258,-38
513,0.009677419,-9
513,0.009677419,1
492,-0.125806452,80
485,-0.170967742,94
522,0.067741935,105
507,-0.029032258,113
519,0.048387097,121
520,0.05483871,-127
508,-0.022580645,-118
469,-0.274193548,-104
476,-0.229032258,-95
526,0.093548387,-86
523,0.074193548,-77
525,0.087096774,-70
516,0.029032258,-65
531,0.125806452,-61
517,0.035483871,-59
508,-0.022580645,-58
506,-0.035483871,-58
531,0.125806452,-58
522,0.067741935,-59
513,0.009677419,-61
515,0.022580645,-66
504,-0.048387097,-71
509,-0.016129032,-75
505,-0.041935484,-76
498,-0.087096774,-77
497,-0.093548387,-79
502,-0.061290323,-82
465,-0.3,-85
479,-0.209677419,-86
498,-0.087096774,-86
547,0.229032258,-88
489,-0.14516129,-91
452,-0.383870968,-98
485,-0.170967742,-101
545,0.216129032,-104
505,-0.041935484,-106
476,-0.229032258,-109
515,0.022580645,-113
546,0.222580645,-118
448,-0.409677419,-125
543,0.203225806,-128
545,0.216129032,124
506,-0.035483871,120
498,-0.087096774,117
546,0.222580645,114
513,0.009677419,113
506,-0.035483871,111
484,-0.177419355,109
514,0.016129032,108
523,0.074193548,107
591,0.512903226,106
510,-0.009677419,105
519,0.048387097,104
492,-0.125806452,103
524,0.080645161,101
468,-0.280645161,97
516,0.029032258,90
526,0.093548387,85
512,0.003225806,80
537,0.164516129,76
531,0.125806452,71
524,0.080645161,66
524,0.080645161,61
519,0.048387097,55
535,0.151612903,0
490,-0.138709677,-4
569,0.370967742,-10
519,0.048387097,-17
500,-0.074193548,-24
501,-0.067741935,-32
512,0.003225806,-41
538,0.170967742,-55
509,-0.016129032,-65
537,0.164516129,-74
496,-0.1,-82
484,-0.177419355,-88
522,0.067741935,-94
509,-0.016129032,-102
510,-0.009677419,-117
530,0.119354839,-122
503,-0.05483871,122
550,0.248387097,118
562,0.325806452,118
551,0.25483871,115
445,-0.429032258,107
616,0.674193548,99
561,0.319354839,94
434,-0.5,88
545,0.216129032,78
494,-0.112903226,74
640,0.829032258,76
530,0.119354839,83
542,0.196774194,90
446,-0.422580645,99
556,0.287096774,102
563,0.332258065,105
553,0.267741935,112
510,-0.009677419,115
483,-0.183870968,117
521,0.061290323,118
525,0.087096774,124
513,0.009677419,-125
539,0.177419355,-109
593,0.525806452,-107
453,-0.377419355,-123
517,0.035483871,122
461,-0.325806452,-127
507,-0.029032258,-112
474,-0.241935484,-94
520,0.05483871,-88
548,0.235483871,-89
500,-0.074193548,-87
489,-0.14516129,-69
528,0.106451613,-48
511,-0.003225806,-25
568,0.364516129,-4
505,-0.041935484,62
493,-0.119354839,72
451,-0.390322581,79
498,-0.087096774,86
480,-0.203225806,94
513,0.009677419,104
493,-0.119354839,117
529,0.112903226,-128
511,-0.003225806,-118
511,-0.003225806,-111
502,-0.061290323,-103
514,0.016129032,-96
491,-0.132258065,-91
517,0.035483871,-85
517,0.035483871,-82
507,-0.029032258,-78
512,0.003225806,-74
510,-0.009677419,-72
506,-0.035483871,-70
512,0.003225806,-69
512,0.003225806,-70
511,-0.003225806,-72
486,-0.164516129,-72
494,-0.112903226,-73
504,-0.048387097,-74
497,-0.093548387,-76
514,0.016129032,-77
518,0.041935484,-79
524,0.080645161,-80
504,-0.048387097,-82
518,0.041935484,-83
520,0.05483871,-83
441,-0.45483871,-84
469,-0.274193548,-86
489,-0.14516129,-90
574,0.403225806,-96
478,-0.216129032,-98
521,0.061290323,-103
494,-0.112903226,-107
484,-0.177419355,-112
583,0.461290323,-116
523,0.074193548,-120
462,-0.319354839,-124
518,0.041935484,-128
522,0.067741935,124
455,-0.364516129,121
505,-0.041935484,119
529,0.112903226,117
528,0.106451613,114
516,0.029032258,112
507,-0.029032258,109
516,0.029032258,107
524,0.080645161,103
488,-0.151612903,101
512,0.003225806,97
489,-0.14516129,93
497,-0.093548387,89
507,-0.029032258,86
517,0.035483871,82
524,0.080645161,74
515,0.022580645,71
511,-0.003225806,63
499,-0.080645161,59
513,0.009677419,56
485,-0.170967742,54
485,-0.170967742,2
522,0.067741935,0
521,0.061290323,-2
513,0.009677419,-5
485,-0.170967742,-12
520,0.05483871,-18
505,-0.041935484,-26
487,-0.158064516,-35
566,0.351612903,-45
551,0.25483871,-56
518,0.041935484,-67
515,0.022580645,-79
551,0.25483871,-87
538,0.170967742,-98
501,-0.067741935,-114
534,0.14516129,-125
523,0.074193548,-128
489,-0.14516129,120
571,0.383870968,106
497,-0.093548387,102
470,-0.267741935,92
465,-0.3,88
582,0.45483871,85
529,0.112903226,80
433,-0.506451613,71
489,-0.14516129,63
488,-0.151612903,71
563,0.332258065,77
467,-0.287096774,77
403,-0.7,80
497,-0.093548387,84
427,-0.54516129,88
414,-0.629032258,88
461,-0.325806452,84
419,-0.596774194,82
537,0.164516129,89
591,0.512903226,96
410,-0.65483871,97
547,0.229032258,107
506,-0.035483871,125
506,-0.035483871,-110
445,-0.429032258,-101
477,-0.222580645,-104
586,0.480645161,-106
426,-0.551612903,-90
508,-0.022580645,-81
521,0.061290323,-82
562,0.325806452,-86
399,-0.725806452,-83
524,0.080645161,-76
517,0.035483871,-73
462,-0.319354839,-76
502,-0.061290323,-73
505,-0.041935484,-63
500,-0.074193548,-50
562,0.325806452,-39
535,0.151612903,-29
502,-0.061290323,-20
516,0.029032258,-6
515,0.022580645,73
507,-0.029032258,97
512,0.003225806,118
534,0.14516129,-120
521,0.061290323,-106
507,-0.029032258,-94
518,0.041935484,-84
508,-0.022580645,-76
510,-0.009677419,-68
546,0.222580645,-60
522,0.067741935,-48
517,0.035483871,-40
514,0.016129032,-32
510,-0.009677419,-25
507,-0.029032258,-21
549,0.241935484,-18
516,0.029032258,-15
532,0.132258065,-14
528,0.106451613,-15
509,-0.016129032,-20
519,0.048387097,-26
507,-0.029032258,-32
491,-0.132258065,-38
509,-0.016129032,-45
518,0.041935484,-52
514,0.016129032,-63
503,-0.05483871,-71
535,0.151612903,-79
490,-0.138709677,-86
547,0.229032258,-92
511,-0.003225806,-97
501,-0.067741935,-103
472,-0.25483871,-108
510,-0.009677419,-112
506,-0.035483871,-117
496,-0.1,-121
514,0.016129032,-125
528,0.106451613,126
501,-0.067741935,122
534,0.14516129,120
552,0.261290323,118
522,0.067741935,116
495,-0.106451613,114
516,0.029032258,113
517,0.035483871,112
502,-0.061290323,111
507,-0.029032258,109
513,0.009677419,105
539,0.177419355,102
522,0.067741935,97
517,0.035483871,96
524,0.080645161,94
518,0.041935484,91
507,-0.029032258,89
510,-0.009677419,85
530,0.119354839,79
519,0.048387097,74
515,0.022580645,68
499,-0.080645161,59
525,0.087096774,53
561,0.319354839,-3
539,0.177419355,-10
528,0.106451613,-17
560,0.312903226,-24
499,-0.080645161,-32
497,-0.093548387,-42
493,-0.119354839,-60
522,0.067741935,-72
502,-0.061290323,-82
501,-0.067741935,-93
539,0.177419355,-106
454,-0.370967742,-119
501,-0.067741935,124
494,-0.112903226,97
536,0.158064516,86
419,-0.596774194,63
496,-0.1,54
478,-0.216129032,46
495,-0.106451613,45
416,-0.616129032,47
469,-0.274193548,45
448,-0.409677419,45
522,0.067741935,62
585,0.474193548,69
485,-0.170967742,77
521,0.061290323,86
446,-0.422580645,87
539,0.177419355,84
499,-0.080645161,82
503,-0.05483871,82
423,-0.570967742,91
565,0.34516129,97
574,0.403225806,104
444,-0.435483871,108
488,-0.151612903,114
542,0.196774194,117
582,0.45483871,118
402,-0.706451613,121
552,0.261290323,-125
553,0.267741935,-114
469,-0.274193548,-102
454,-0.370967742,-95
561,0.319354839,-97
581,0.448387097,-95
493,-0.119354839,-70
520,0.05483871,-36
546,0.222580645,-6
490,-0.138709677,54
504,-0.048387097,-5
521,0.061290323,-10
512,0.003225806,-4
511,-0.003225806,59
522,0.067741935,76
506,-0.035483871,90
517,0.035483871,101
516,0.029032258,103
550,0.248387097,106
517,0.035483871,111
521,0.061290323,117
511,-0.003225806,123
509,-0.016129032,-128
544,0.209677419,-122
521,0.061290323,-113
520,0.05483871,-109
508,-0.022580645,-96
509,-0.016129032,-89
531,0.125806452,-84
541,0.190322581,-80
516,0.029032258,-75
501,-0.067741935,-71
554,0.274193548,-67
511,-0.003225806,-62
515,0.022580645,-60
530,0.119354839,-61
510,-0.009677419,-61
507,-0.029032258,-61
516,0.029032258,-61
506,-0.035483871,-60
486,-0.164516129,-60
516,0.029032258,-61
508,-0.022580645,-63
487,-0.158064516,-66
480,-0.203225806,-69
507,-0.029032258,-74
520,0.05483871,-79
499,-0.080645161,-83
509,-0.016129032,-91
584,0.467741935,-94
498,-0.087096774,-103
486,-0.164516129,-107
499,-0.080645161,-110
542,0.196774194,-114
519,0.048387097,-117
484,-0.177419355,-118
512,0.003225806,-119
524,0.080645161,-120
523,0.074193548,-121
473,-0.248387097,-123
480,-0.203225806,-125
562,0.325806452,-127
464,-0.306451613,126
489,-0.14516129,123
530,0.119354839,118
552,0.261290323,111
492,-0.125806452,106
482,-0.190322581,103
541,0.190322581,99
511,-0.003225806,95
457,-0.351612903,90
531,0.125806452,85
529,0.112903226,74
509,-0.016129032,69
498,-0.087096774,54
514,0.016129032,-3
483,-0.183870968,-11
522,0.067741935,-18
521,0.061290323,-25
521,0.061290323,-32
511,-0.003225806,-38
523,0.074193548,-52
504,-0.048387097,-67
540,0.183870968,-85
507,-0.029032258,-95
526,0.093548387,-106
565,0.34516129,125
516,0.029032258,94
478,-0.216129032,72
540,0.183870968,71
528,0.106451613,75
511,-0.003225806,74
444,-0.435483871,69
546,0.222580645,77
471,-0.261290323,93
375,-0.880645161,100
584,0.467741935,85
509,-0.016129032,77
513,0.009677419,69
519,0.048387097,73
528,0.106451613,83
542,0.196774194,93
478,-0.216129032,95
591,0.512903226,94
437,-0.480645161,98
439,-0.467741935,106
487,-0.158064516,119
412,-0.641935484,121
548,0.235483871,122
390,-0.783870968,119
599,0.564516129,121
448,-0.409677419,127
551,0.25483871,-128
512,0.003225806,-118
426,-0.551612903,-105
511,-0.003225806,-88
385,-0.816129032,-74
488,-0.151612903,-66
584,0.467741935,-54
524,0.080645161,-37
485,-0.170967742,-15
506,-0.035483871,56
541,0.190322581,77
505,-0.041935484,81
514,0.016129032,83
580,0.441935484,85
529,0.112903226,93
490,-0.138709677,104
562,0.325806452,117
514,0.016129032,126
526,0.093548387,-120
510,-0.009677419,-116
497,-0.093548387,-113
516,0.029032258,-110
509,-0.016129032,-107
511,-0.003225806,-103
509,-0.016129032,-98
532,0.132258065,-94
511,-0.003225806,-92
510,-0.009677419,-89
498,-0.087096774,-87
502,-0.061290323,-85
506,-0.035483871,-85
506,-0.035483871,-85
521,0.061290323,-85
540,0.183870968,-85
515,0.022580645,-86
513,0.009677419,-88
479,-0.209677419,-88
488,-0.151612903,-88
571,0.383870968,-87
531,0.125806452,-87
441,-0.45483871,-86
488,-0.151612903,-85
505,-0.041935484,-85
523,0.074193548,-84
540,0.183870968,-84
538,0.170967742,-84
571,0.383870968,-85
510,-0.009677419,-87
466,-0.293548387,-91
500,-0.074193548,-96
498,-0.087096774,-104
507,-0.029032258,-109
517,0.035483871,-114
511,-0.003225806,-118
499,-0.080645161,-121
517,0.035483871,-123
531,0.125806452,-126
511,-0.003225806,-128
472,-0.25483871,124
514,0.016129032,120
516,0.029032258,118
509,-0.016129032,116
510,-0.009677419,114
509,-0.016129032,112
505,-0.041935484,110
521,0.061290323,107
514,0.016129032,102
514,0.016129032,98
518,0.041935484,92
473,-0.248387097,86
508,-0.022580645,79
513,0.009677419,73
527,0.1,67
517,0.035483871,61
515,0.022580645,1
515,0.022580645,-7
492,-0.125806452,-18
479,-0.209677419,-28
534,0.14516129,-41
503,-0.05483871,-59
495,-0.106451613,-81
475,-0.235483871,-100
486,-0.164516129,-112
514,0.016129032,-117
498,-0.087096774,-127
541,0.190322581,112
495,-0.106451613,97
515,0.022580645,91
460,-0.332258065,94
453,-0.377419355,96
453,-0.377419355,80
509,-0.016129032,67
534,0.14516129,67
564,0.338709677,73
481,-0.196774194,79
537,0.164516129,83
613,0.65483871,88
545,0.216129032,95
486,-0.164516129,98
512,0.003225806,100
648,0.880645161,107
447,-0.416129032,113
494,-0.112903226,119
640,0.829032258,124
372,-0.9,118
619,0.693548387,108
657,0.938709677,104
476,-0.229032258,108
609,0.629032258,122
584,0.467741935,-126
616,0.674193548,-127
411,-0.648387097,-128
464,-0.306451613,-126
523,0.074193548,-112
501,-0.067741935,-90
541,0.190322581,-53
500,-0.074193548,-31
535,0.151612903,-15
540,0.183870968,-3
507,-0.029032258,55
510,-0.009677419,61
500,-0.074193548,66
556,0.287096774,73
499,-0.080645161,76
516,0.029032258,85
525,0.087096774,92
516,0.029032258,99
500,-0.074193548,106
501,-0.067741935,112
495,-0.106451613,118
499,-0.080645161,123
517,0.035483871,-124
533,0.138709677,-118
492,-0.125806452,-114
516,0.029032258,-111
500,-0.074193548,-108
503,-0.05483871,-104
509,-0.016129032,-101
523,0.074193548,-99
529,0.112903226,-96
512,0.003225806,-96
509,-0.016129032,-96
510,-0.009677419,-95
518,0.041935484,-93
528,0.106451613,-92
521,0.061290323,-92
504,-0.048387097,-93
510,-0.009677419,-93
508,-0.022580645,-93
520,0.05483871,-93
520,0.05483871,-92
503,-0.05483871,-92
496,-0.1,-92
498,-0.087096774,-93
521,0.061290323,-94
513,0.009677419,-96
490,-0.138709677,-99
498,-0.087096774,-101
496,-0.1,-104
507,-0.029032258,-107
521,0.061290323,-109
495,-0.106451613,-111
501,-0.067741935,-113
509,-0.016129032,-118
533,0.138709677,-121
519,0.048387097,-124
501,-0.067741935,-126
494,-0.112903226,127
537,0.164516129,125
503,-0.05483871,121
502,-0.061290323,118
543,0.203225806,114
528,0.106451613,109
513,0.009677419,105
486,-0.164516129,102
501,-0.067741935,98
564,0.338709677,95
508,-0.022580645,92
474,-0.241935484,88
499,-0.080645161,82
509,-0.016129032,70
504,-0.048387097,61
524,0.080645161,0
534,0.14516129,-11
517,0.035483871,-22
534,0.14516129,-35
540,0.183870968,-50
525,0.087096774,-71
496,-0.1,-89
509,-0.016129032,-108
517,0.035483871,-122
548,0.235483871,123
518,0.041935484,110
499,-0.080645161,94
430,-0.525806452,77
527,0.1,67
501,-0.067741935,62
486,-0.164516129,65
574,0.403225806,67
422,-0.577419355,66
519,0.048387097,70
522,0.067741935,79
439,-0.467741935,92
506,-0.035483871,98
473,-0.248387097,98
492,-0.125806452,97
520,0.05483871,94
548,0.235483871,88
542,0.196774194,80
539,0.177419355,81
506,-0.035483871,86
477,-0.222580645,97
524,0.080645161,109
495,-0.106451613,110
484,-0.177419355,109
587,0.487096774,116
464,-0.306451613,-128
472,-0.25483871,-117
538,0.170967742,-110
493,-0.119354839,-93
384,-0.822580645,-84
466,-0.293548387,-66
613,0.65483871,-71
506,-0.035483871,-81
543,0.203225806,-79
525,0.087096774,-64
526,0.093548387,-51
505,-0.041935484,-49
501,-0.067741935,-55
494,-0.112903226,-52
500,-0.074193548,-37
522,0.067741935,-13
518,0.041935484,60
529,0.112903226,78
514,0.016129032,86
515,0.022580645,88
511,-0.003225806,94
515,0.022580645,104
489,-0.14516129,118
527,0.1,-123
503,-0.05483871,-108
524,0.080645161,-96
530,0.119354839,-86
468,-0.280645161,-80
516,0.029032258,-75
535,0.151612903,-70
518,0.041935484,-66
500,-0.074193548,-60
492,-0.125806452,-54
520,0.05483871,-51
515,0.022580645,-49
557,0.293548387,-50
524,0.080645161,-49
525,0.087096774,-47
493,-0.119354839,-45
537,0.164516129,-47
528,0.106451613,-50
529,0.112903226,-54
534,0.14516129,-56
508,-0.022580645,-58
512,0.003225806,-61
524,0.080645161,-63
484,-0.177419355,-64
455,-0.364516129,-67
567,0.358064516,-72
497,-0.093548387,-77
479,-0.209677419,-82
558,0.3,-87
527,0.1,-94
490,-0.138709677,-97
522,0.067741935,-104
550,0.248387097,-108
514,0.016129032,-112
538,0.170967742,-115
521,0.061290323,-119
533,0.138709677,-123
537,0.164516129,-127
523,0.074193548,123
525,0.087096774,119
528,0.106451613,115
497,-0.093548387,111
514,0.016129032,106
514,0.016129032,101
542,0.196774194,96
485,-0.170967742,92
522,0.067741935,88
531,0.125806452,85
502,-0.061290323,83
502,-0.061290323,80
513,0.009677419,75
513,0.009677419,71
517,0.035483871,66
513,0.009677419,58
535,0.151612903,55
504,-0.048387097,-1
500,-0.074193548,-6
496,-0.1,-12
470,-0.267741935,-19
537,0.164516129,-28
508,-0.022580645,-37
508,-0.022580645,-47
531,0.125806452,-60
472,-0.25483871,-78
516,0.029032258,-90
480,-0.203225806,-107
512,0.003225806,127
509,-0.016129032,110
492,-0.125806452,100
578,0.429032258,92
503,-0.05483871,80
507,-0.029032258,72
473,-0.248387097,67
474,-0.241935484,68
639,0.822580645,65
364,-0.951612903,54
507,-0.029032258,46
622,0.712903226,43
493,-0.119354839,57
472,-0.25483871,63
491,-0.132258065,62
576,0.416129032,63
467,-0.287096774,72
521,0.061290323,88
489,-0.14516129,106
522,0.067741935,122
430,-0.525806452,125
647,0.874193548,126
475,-0.235483871,-124
603,0.590322581,-115
550,0.248387097,-107
373,-0.893548387,-101
501,-0.067741935,-93
495,-0.106451613,-87
608,0.622580645,-80
527,0.1,-80
432,-0.512903226,-88
583,0.461290323,-92
531,0.125806452,-82
501,-0.067741935,-62
507,-0.029032258,-42
533,0.138709677,-25
532,0.132258065,-12
477,-0.222580645,-10
502,-0.061290323,-6
518,0.041935484,-1
522,0.067741935,56
528,0.106451613,66
520,0.05483871,76
514,0.016129032,84
535,0.151612903,91
505,-0.041935484,101
513,0.009677419,110
515,0.022580645,121
513,0.009677419,-125
510,-0.009677419,-117
513,0.009677419,-112
514,0.016129032,-108
509,-0.016129032,-104
523,0.074193548,-100
526,0.093548387,-98
531,0.125806452,-97
559,0.306451613,-96
504,-0.048387097,-94
488,-0.151612903,-93
504,-0.048387097,-91
528,0.106451613,-91
513,0.009677419,-91
513,0.009677419,-91
509,-0.016129032,-91
506,-0.035483871,-92
529,0.112903226,-94
539,0.177419355,-95
500,-0.074193548,-95
506,-0.035483871,-94
504,-0.048387097,-91
476,-0.229032258,-89
499,-0.080645161,-88
510,-0.009677419,-87
525,0.087096774,-86
497,-0.093548387,-86
523,0.074193548,-86
498,-0.087096774,-87
540,0.183870968,-89
517,0.035483871,-90
524,0.080645161,-91
501,-0.067741935,-93
498,-0.087096774,-95
525,0.087096774,-96
508,-0.022580645,-97
485,-0.170967742,-99
515,0.022580645,-100
529,0.112903226,-104
522,0.067741935,-107
524,0.080645161,-110
483,-0.183870968,-114
482,-0.190322581,-118
470,-0.267741935,-123
489,-0.14516129,-128
515,0.022580645,124
525,0.087096774,117
508,-0.022580645,112
514,0.016129032,106
507,-0.029032258,101
533,0.138709677,96
516,0.029032258,92
541,0.190322581,86
517,0.035483871,74
514,0.016129032,66
517,0.035483871,57
507,-0.029032258,-1
501,-0.067741935,-10
523,0.074193548,-19
509,-0.016129032,-25
510,-0.009677419,-30
490,-0.138709677,-38
516,0.029032258,-41
492,-0.125806452,-54
522,0.067741935,-65
515,0.022580645,-76
486,-0.164516129,-86
531,0.125806452,-99
472,-0.25483871,-120
514,0.016129032,106
546,0.222580645,77
523,0.074193548,69
484,-0.177419355,58
518,0.041935484,51
502,-0.061290323,58
490,-0.138709677,69
517,0.035483871,74
538,0.170967742,77
529,0.112903226,80
561,0.319354839,85
560,0.312903226,92
637,0.809677419,98
504,-0.048387097,102
602,0.583870968,102
400,-0.719354839,101
634,0.790322581,117
516,0.029032258,125
527,0.1,-118
608,0.622580645,-118
516,0.029032258,-121
437,-0.480645161,-123
487,-0.158064516,-115
530,0.119354839,-114
578,0.429032258,-116
417,-0.609677419,-113
400,-0.719354839,-106
588,0.493548387,-106
501,-0.067741935,-108
365,-0.94516129,-107
588,0.493548387,-107
467,-0.287096774,-106
504,-0.048387097,-102
531,0.125806452,-88
538,0.170967742,-71
492,-0.125806452,-54
511,-0.003225806,-41
556,0.287096774,-33
513,0.009677419,-28
458,-0.34516129,-23
497,-0.093548387,-16
525,0.087096774,-3
534,0.14516129,58
501,-0.067741935,71
496,-0.1,85
515,0.022580645,98
516,0.029032258,112
495,-0.106451613,124
510,-0.009677419,-120
525,0.087096774,-109
511,-0.003225806,-94
499,-0.080645161,-85
515,0.022580645,-77
504,-0.048387097,-72
496,-0.1,-66
508,-0.022580645,-62
519,0.048387097,-59
498,-0.087096774,-57
535,0.151612903,-57
464,-0.306451613,-58
505,-0.041935484,-59
517,0.035483871,-61
519,0.048387097,-63
504,-0.048387097,-65
512,0.003225806,-66
508,-0.022580645,-70
489,-0.14516129,-71
504,-0.048387097,-72
539,0.177419355,-74
548,0.235483871,-76
495,-0.106451613,-80
483,-0.183870968,-85
542,0.196774194,-91
464,-0.306451613,-96
503,-0.05483871,-103
581,0.448387097,-107
504,-0.048387097,-110
528,0.106451613,-114
502,-0.061290323,-117
509,-0.016129032,-119
452,-0.383870968,-120
508,-0.022580645,-121
508,-0.022580645,-122
509,-0.016129032,-122
467,-0.287096774,-123
541,0.190322581,-125
513,0.009677419,-127
498,-0.087096774,-128
505,-0.041935484,127
525,0.087096774,122
522,0.067741935,120
557,0.293548387,115
480,-0.203225806,111
496,-0.1,108
498,-0.087096774,106
505,-0.041935484,104
515,0.022580645,102
510,-0.009677419,100
486,-0.164516129,93
503,-0.05483871,88
515,0.022580645,82
498,-0.087096774,76
517,0.035483871,71
495,-0.106451613,64
511,-0.003225806,57
514,0.016129032,-1
501,-0.067741935,-13
513,0.009677419,-22
525,0.087096774,-33
557,0.293548387,-43
508,-0.022580645,-51
542,0.196774194,-56
539,0.177419355,-61
502,-0.061290323,-75
481,-0.196774194,-81
563,0.332258065,-98
518,0.041935484,-101
547,0.229032258,-107
469,-0.274193548,-126
523,0.074193548,108
487,-0.158064516,93
492,-0.125806452,85
485,-0.170967742,79
545,0.216129032,74
508,-0.022580645,73
554,0.274193548,74
523,0.074193548,80
489,-0.14516129,90
485,-0.170967742,95
481,-0.196774194,93
556,0.287096774,99
496,-0.1,112
474,-0.241935484,119
563,0.332258065,113
455,-0.364516129,110
592,0.519354839,110
413,-0.635483871,114
490,-0.138709677,117
613,0.65483871,115
508,-0.022580645,113
426,-0.551612903,110
605,0.603225806,114
609,0.629032258,116
475,-0.235483871,120
434,-0.5,-126
598,0.558064516,-116
483,-0.183870968,-109
518,0.041935484,-96
511,-0.003225806,-83
533,0.138709677,-69
545,0.216129032,-59
501,-0.067741935,-52
481,-0.196774194,-43
506,-0.035483871,-31
507,-0.029032258,-13
571,0.383870968,-2
500,-0.074193548,56
521,0.061290323,65
482,-0.190322581,73
480,-0.203225806,82
508,-0.022580645,93
527,0.1,104
530,0.119354839,124
511,-0.003225806,-125
510,-0.009677419,-107
506,-0.035483871,-98
514,0.016129032,-91
529,0.112903226,-86
515,0.022580645,-81
516,0.029032258,-75
522,0.067741935,-70
513,0.009677419,-65
509,-0.016129032,-63
503,-0.05483871,-60
507,-0.029032258,-57
552,0.261290323,-55
538,0.170967742,-56
520,0.05483871,-59
504,-0.048387097,-62
514,0.016129032,-67
516,0.029032258,-70
518,0.041935484,-75
530,0.119354839,-80
535,0.151612903,-85
491,-0.132258065,-89
440,-0.461290323,-93
481,-0.196774194,-98
533,0.138709677,-102
502,-0.061290323,-108
472,-0.25483871,-112
501,-0.067741935,-114
527,0.1,-116
522,0.067741935,-118
495,-0.106451613,-119
497,-0.093548387,-121
526,0.093548387,-122
509,-0.016129032,-121
502,-0.061290323,-120
507,-0.029032258,-121
512,0.003225806,-123
516,0.029032258,-125
519,0.048387097,-127
516,0.029032258,-128
503,-0.05483871,126
512,0.003225806,124
513,0.009677419,122
512,0.003225806,120
548,0.235483871,117
506,-0.035483871,114
522,0.067741935,110
524,0.080645161,107
513,0.009677419,101
534,0.14516129,97
547,0.229032258,92
511,-0.003225806,88
516,0.029032258,83
515,0.022580645,78
529,0.112903226,73
533,0.138709677,67
515,0.022580645,60
552,0.261290323,-1
524,0.080645161,-10
500,-0.074193548,-20
511,-0.003225806,-30
491,-0.132258065,-39
475,-0.235483871,-46
530,0.119354839,-52
521,0.061290323,-63
495,-0.106451613,-78
486,-0.164516129,-97
547,0.229032258,-116
512,0.003225806,126
485,-0.170967742,114
524,0.080645161,100
526,0.093548387,85
563,0.332258065,70
421,-0.583870968,66
533,0.138709677,51
563,0.332258065,47
451,-0.390322581,46
525,0.087096774,49
589,0.5,57
447,-0.416129032,70
509,-0.016129032,78
453,-0.377419355,76
445,-0.429032258,75
526,0.093548387,78
500,-0.074193548,89
546,0.222580645,100
502,-0.061290323,113
537,0.164516129,122
477,-0.222580645,-125
547,0.229032258,-108
506,-0.035483871,-102
528,0.106451613,-106
488,-0.151612903,-111
516,0.029032258,-111
430,-0.525806452,-104
579,0.435483871,-97
543,0.203225806,-96
504,-0.048387097,-95
534,0.14516129,-83
572,0.390322581,-70
494,-0.112903226,-63
490,-0.138709677,-65
522,0.067741935,-70
529,0.112903226,-75
497,-0.093548387,-78
513,0.009677419,-76
520,0.05483871,-66
519,0.048387097,-50
537,0.164516129,-31
500,-0.074193548,-8
502,-0.061290323,64
570,0.377419355,85
521,0.061290323,103
571,0.383870968,124
512,0.003225806,-122
504,-0.048387097,-112
504,-0.048387097,-103
510,-0.009677419,-96
518,0.041935484,-88
522,0.067741935,-80
515,0.022580645,-69
509,-0.016129032,-66
504,-0.048387097,-59
502,-0.061290323,-56
539,0.177419355,-54
527,0.1,-53
530,0.119354839,-51
520,0.05483871,-51
535,0.151612903,-50
500,-0.074193548,-50
508,-0.022580645,-52
511,-0.003225806,-53
514,0.016129032,-54
526,0.093548387,-55
520,0.05483871,-57
506,-0.035483871,-59
453,-0.377419355,-61
502,-0.061290323,-67
565,0.34516129,-72
506,-0.035483871,-76
513,0.009677419,-81
517,0.035483871,-85
506,-0.035483871,-89
500,-0.074193548,-94
521,0.061290323,-99
543,0.203225806,-104
496,-0.1,-108
517,0.035483871,-115
521,0.061290323,-120
499,-0.080645161,-125
509,-0.016129032,126
517,0.035483871,121
531,0.125806452,116
518,0.041935484,111
509,-0.016129032,105
590,0.506451613,102
515,0.022580645,100
529,0.112903226,99
508,-0.022580645,99
513,0.009677419,98
490,-0.138709677,96
506,-0.035483871,92
510,-0.009677419,89
509,-0.016129032,86
510,-0.009677419,83
525,0.087096774,78
549,0.241935484,73
514,0.016129032,67
541,0.190322581,61
533,0.138709677,54
529,0.112903226,-2
509,-0.016129032,-17
518,0.041935484,-28
513,0.009677419,-38
480,-0.203225806,-46
514,0.016129032,-56
477,-0.222580645,-68
515,0.022580645,-76
487,-0.158064516,-78
510,-0.009677419,-90
509,-0.016129032,-110
529,0.112903226,-124
522,0.067741935,122
496,-0.1,112
480,-0.203225806,107
552,0.261290323,103
513,0.009677419,90
587,0.487096774,86
504,-0.048387097,90
527,0.1,94
476,-0.229032258,90
548,0.235483871,86
513,0.009677419,93
446,-0.422580645,96
510,-0.009677419,93
547,0.229032258,83
403,-0.7,90
485,-0.170967742,101
547,0.229032258,107
548,0.235483871,108
584,0.467741935,110
373,-0.893548387,113
392,-0.770967742,122
635,0.796774194,-116
540,0.183870968,-111
494,-0.112903226,-116
577,0.422580645,-118
518,0.041935484,-115
406,-0.680645161,-107
514,0.016129032,-98
557,0.293548387,-80
539,0.177419355,-62
451,-0.390322581,-46
505,-0.041935484,-32
578,0.429032258,-25
498,-0.087096774,-25
470,-0.267741935,-29
521,0.061290323,-29
539,0.177419355,-25
542,0.196774194,-15
499,-0.080645161,55
517,0.035483871,70
547,0.229032258,84
515,0.022580645,94
532,0.132258065,100
537,0.164516129,104
509,-0.016129032,106
500,-0.074193548,112
484,-0.177419355,118
509,-0.016129032,124
514,0.016129032,-125
516,0.029032258,-119
534,0.14516129,-112
499,-0.080645161,-106
521,0.061290323,-101
526,0.093548387,-93
508,-0.022580645,-88
504,-0.048387097,-84
525,0.087096774,-81
522,0.067741935,-79
542,0.196774194,-77
510,-0.009677419,-76
503,-0.05483871,-76
507,-0.029032258,-77
512,0.003225806,-77
534,0.14516129,-77
516,0.029032258,-78
509,-0.016129032,-78
429,-0.532258065,-78
485,-0.170967742,-80
525,0.087096774,-83
519,0.048387097,-89
474,-0.241935484,-93
502,-0.061290323,-95
528,0.106451613,-97
534,0.14516129,-100
489,-0.14516129,-104
502,-0.061290323,-107
531,0.125806452,-111
513,0.009677419,-116
488,-0.151612903,-118
522,0.067741935,-126
507,-0.029032258,125
493,-0.119354839,121
581,0.448387097,118
533,0.138709677,116
475,-0.235483871,114
549,0.241935484,112
515,0.022580645,107
515,0.022580645,104
527,0.1,101
521,0.061290323,98
520,0.05483871,95
523,0.074193548,93
520,0.05483871,91
533,0.138709677,89
489,-0.14516129,87
508,-0.022580645,86
533,0.138709677,85
525,0.087096774,84
493,-0.119354839,83
507,-0.029032258,82
511,-0.003225806,79
509,-0.016129032,73
513,0.009677419,70
518,0.041935484,61
504,-0.048387097,55
508,-0.022580645,0
509,-0.016129032,-6
495,-0.106451613,-12
514,0.016129032,-19
522,0.067741935,-26
512,0.003225806,-36
495,-0.106451613,-42
504,-0.048387097,-49
512,0.003225806,-57
516,0.029032258,-67
514,0.016129032,-80
471,-0.261290323,-92
546,0.222580645,-99
481,-0.196774194,-105
519,0.048387097,-110
453,-0.377419355,-120
532,0.132258065,121
518,0.041935484,105
492,-0.125806452,88
552,0.261290323,72
501,-0.067741935,60
473,-0.248387097,54
562,0.325806452,60
531,0.125806452,74
511,-0.003225806,84
476,-0.229032258,82
537,0.164516129,79
460,-0.332258065,86
327,-1.190322581,98
568,0.364516129,103
553,0.267741935,99
477,-0.222580645,98
491,-0.132258065,98
556,0.287096774,104
526,0.093548387,118
381,-0.841935484,-125
456,-0.358064516,-118
506,-0.035483871,-116
525,0.087096774,-112
434,-0.5,-108
523,0.074193548,-111
612,0.648387097,-117
392,-0.770967742,-116
445,-0.429032258,-106
566,0.351612903,-89
555,0.280645161,-61
456,-0.358064516,-45
490,-0.138709677,-33
514,0.016129032,-25
520,0.05483871,-18
490,-0.138709677,-9
506,-0.035483871,0
512,0.003225806,62
543,0.203225806,75
477,-0.222580645,91
488,-0.151612903,99
516,0.029032258,105
513,0.009677419,111
522,0.067741935,118
532,0.132258065,124
507,-0.029032258,-127
514,0.016129032,-121
496,-0.1,-114
520,0.05483871,-109
543,0.203225806,-104
498,-0.087096774,-101
526,0.093548387,-99
512,0.003225806,-98
507,-0.029032258,-98
511,-0.003225806,-97
528,0.106451613,-94
529,0.112903226,-93
511,-0.003225806,-92
515,0.022580645,-91
542,0.196774194,-89
502,-0.061290323,-85
494,-0.112903226,-83
521,0.061290323,-82
530,0.119354839,-83
513,0.009677419,-84
434,-0.5,-85
495,-0.106451613,-87
505,-0.041935484,-89
474,-0.241935484,-93
507,-0.029032258,-96
518,0.041935484,-100
522,0.067741935,-105
525,0.087096774,-106
548,0.235483871,-107
495,-0.106451613,-108
536,0.158064516,-109
527,0.1,-111
519,0.048387097,-114
513,0.009677419,-117
511,-0.003225806,-120
513,0.009677419,-121
493,-0.119354839,-126
510,-0.009677419,-128
507,-0.029032258,125
518,0.041935484,123
504,-0.048387097,122
498,-0.087096774,120
515,0.022580645,118
507,-0.029032258,113
504,-0.048387097,111
520,0.05483871,109
521,0.061290323,106
506,-0.035483871,102
551,0.25483871,96
525,0.087096774,90
520,0.05483871,84
539,0.177419355,72
517,0.035483871,64
486,-0.164516129,55
511,-0.003225806,-1
503,-0.05483871,-8
519,0.048387097,-14
515,0.022580645,-20
516,0.029032258,-29
520,0.05483871,-32
515,0.022580645,-40
507,-0.029032258,-47
540,0.183870968,-55
506,-0.035483871,-62
548,0.235483871,-71
495,-0.106451613,-82
498,-0.087096774,-95
502,-0.061290323,-112
521,0.061290323,-124
485,-0.170967742,117
495,-0.106451613,101
521,0.061290323,92
525,0.087096774,91
480,-0.203225806,93
487,-0.158064516,91
571,0.383870968,86
406,-0.680645161,86
521,0.061290323,83
514,0.016129032,79
524,0.080645161,75
409,-0.661290323,74
539,0.177419355,77
561,0.319354839,81
487,-0.158064516,84
547,0.229032258,95
402,-0.706451613,101
579,0.435483871,107
571,0.383870968,119
440,-0.461290323,-127
561,0.319354839,-123
431,-0.519354839,-125
600,0.570967742,-123
377,-0.867741935,-122
523,0.074193548,-124
544,0.209677419,-119
491,-0.132258065,-108
509,-0.016129032,-95
491,-0.132258065,-87
643,0.848387097,-85
475,-0.235483871,-87
580,0.441935484,-86
522,0.067741935,-82
502,-0.061290323,-77
505,-0.041935484,-71
509,-0.016129032,-62
559,0.306451613,-52
494,-0.112903226,-42
506,-0.035483871,-32
513,0.009677419,-20
521,0.061290323,-9
511,-0.003225806,1
530,0.119354839,63
484,-0.177419355,76
503,-0.05483871,86
530,0.119354839,94
498,-0.087096774,99
512,0.003225806,106
517,0.035483871,113
516,0.029032258,119
514,0.016129032,124
525,0.087096774,127
512,0.003225806,-126
486,-0.164516129,-123
510,-0.009677419,-118
542,0.196774194,-109
506,-0.035483871,-103
511,-0.003225806,-97
515,0.022580645,-92
505,-0.041935484,-88
523,0.074193548,-85
508,-0.022580645,-81
529,0.112903226,-76
513,0.009677419,-74
563,0.332258065,-69
528,0.106451613,-67
551,0.25483871,-67
519,0.048387097,-69
525,0.087096774,-72
518,0.041935484,-74
491,-0.132258065,-77
497,-0.093548387,-80
518,0.041935484,-83
504,-0.048387097,-85
446,-0.422580645,-89
532,0.132258065,-94
541,0.190322581,-99
503,-0.05483871,-103
507,-0.029032258,-106
504,-0.048387097,-111
533,0.138709677,-115
528,0.106451613,-118
532,0.132258065,-119
517,0.035483871,-120
517,0.035483871,-120
512,0.003225806,-120
509,-0.016129032,-121
520,0.05483871,-123
540,0.183870968,-125
501,-0.067741935,-126
505,-0.041935484,-128
520,0.05483871,124
507,-0.029032258,121
504,-0.048387097,118
517,0.035483871,117
521,0.061290323,115
510,-0.009677419,113
518,0.041935484,111
471,-0.261290323,109
513,0.009677419,107
515,0.022580645,105
518,0.041935484,103
534,0.14516129,102
534,0.14516129,100
507,-0.029032258,100
512,0.003225806,98
513,0.009677419,96
500,-0.074193548,92
520,0.05483871,87
536,0.158064516,82
519,0.048387097,75
513,0.009677419,68
484,-0.177419355,60
517,0.035483871,-3
510,-0.009677419,-13
520,0.05483871,-24
528,0.106451613,-34
497,-0.093548387,-43
508,-0.022580645,-52
514,0.016129032,-63
506,-0.035483871,-82
507,-0.029032258,-94
489,-0.14516129,-106
532,0.132258065,-116
512,0.003225806,-127
488,-0.151612903,114
493,-0.119354839,94
526,0.093548387,81
463,-0.312903226,74
458,-0.34516129,68
509,-0.016129032,53
478,-0.216129032,50
512,0.003225806,50
458,-0.34516129,49
458,-0.34516129,43
468,-0.280645161,36
554,0.274193548,35
369,-0.919354839,40
405,-0.687096774,47
594,0.532258065,49
558,0.3,52
495,-0.106451613,56
500,-0.074193548,66
581,0.448387097,77
614,0.661290323,84
458,-0.34516129,89
506,-0.035483871,95
548,0.235483871,113
556,0.287096774,-121
450,-0.396774194,-102
542,0.196774194,-92
536,0.158064516,-85
518,0.041935484,-77
423,-0.570967742,-69
499,-0.080645161,-62
559,0.306451613,-57
523,0.074193548,-52
498,-0.087096774,-42
495,-0.106451613,-29
518,0.041935484,-16
475,-0.235483871,-4
470,-0.267741935,55
516,0.029032258,66
520,0.05483871,74
524,0.080645161,83
528,0.106451613,94
568,0.364516129,104
496,-0.1,113
531,0.125806452,121
517,0.035483871,-125
539,0.177419355,-118
517,0.035483871,-112
526,0.093548387,-108
526,0.093548387,-104
497,-0.093548387,-101
526,0.093548387,-98
542,0.196774194,-95
514,0.016129032,-91
513,0.009677419,-89
501,-0.067741935,-89
517,0.035483871,-89
522,0.067741935,-90
521,0.061290323,-90
512,0.003225806,-91
487,-0.158064516,-93
532,0.132258065,-96
519,0.048387097,-102
522,0.067741935,-105
524,0.080645161,-107
500,-0.074193548,-109
537,0.164516129,-110
510,-0.009677419,-110
487,-0.158064516,-111
486,-0.164516129,-112
550,0.248387097,-113
526,0.093548387,-111
479,-0.209677419,-110
504,-0.048387097,-109
461,-0.325806452,-109
512,0.003225806,-111
486,-0.164516129,-113
511,-0.003225806,-113
524,0.080645161,-113
515,0.022580645,-113
504,-0.048387097,-114
508,-0.022580645,-114
503,-0.05483871,-113
523,0.074193548,-112
510,-0.009677419,-111
519,0.048387097,-111
522,0.067741935,-116
466,-0.293548387,-119
508,-0.022580645,-122
500,-0.074193548,-125
518,0.041935484,-127
524,0.080645161,126
523,0.074193548,123
514,0.016129032,119
534,0.14516129,114
495,-0.106451613,110
526,0.093548387,107
508,-0.022580645,104
513,0.009677419,101
525,0.087096774,98
545,0.216129032,95
513,0.009677419,90
506,-0.035483871,88
555,0.280645161,83
532,0.132258065,80
543,0.203225806,75
481,-0.196774194,71
494,-0.112903226,65
519,0.048387097,58
497,-0.093548387,0
559,0.306451613,-9
520,0.05483871,-23
511,-0.003225806,-31
478,-0.216129032,-37
519,0.048387097,-44
476,-0.229032258,-55
552,0.261290323,-69
500,-0.074193548,-82
537,0.164516129,-102
491,-0.132258065,-119
489,-0.14516129,124
505,-0.041935484,119
531,0.125806452,112
490,-0.138709677,99
549,0.241935484,85
513,0.009677419,81
405,-0.687096774,90
565,0.34516129,95
585,0.474193548,97
434,-0.5,99
455,-0.364516129,107
583,0.461290323,118
453,-0.377419355,119
558,0.3,118
460,-0.332258065,114
509,-0.016129032,101
639,0.822580645,102
366,-0.938709677,105
497,-0.093548387,103
613,0.65483871,99
552,0.261290323,102
526,0.093548387,110
573,0.396774194,114
615,0.667741935,115
482,-0.190322581,124
407,-0.674193548,-122
495,-0.106451613,-113
516,0.029032258,-108
437,-0.480645161,-107
533,0.138709677,-104
594,0.532258065,-99
618,0.687096774,-89
520,0.05483871,-76
478,-0.216129032,-67
508,-0.022580645,-62
533,0.138709677,-58
539,0.177419355,-53
518,0.041935484,-45
540,0.183870968,-35
503,-0.05483871,-18
495,-0.106451613,-8
556,0.287096774,0
529,0.112903226,57
531,0.125806452,65
515,0.022580645,76
521,0.061290323,87
499,-0.080645161,99
521,0.061290323,118
513,0.009677419,-126
520,0.05483871,-114
591,0.512903226,-104
504,-0.048387097,-95
531,0.125806452,-88
508,-0.022580645,-81
495,-0.106451613,-73
509,-0.016129032,-65
519,0.048387097,-60
522,0.067741935,-55
533,0.138709677,-52
514,0.016129032,-49
491,-0.132258065,-48
494,-0.112903226,-48
470,-0.267741935,-48
534,0.14516129,-49
524,0.080645161,-51
522,0.067741935,-52
519,0.048387097,-55
526,0.093548387,-58
434,-0.5,-61
535,0.151612903,-64
507,-0.029032258,-68
526,0.093548387,-76
518,0.041935484,-81
548,0.235483871,-86
511,-0.003225806,-91
484,-0.177419355,-96
486,-0.164516129,-100
533,0.138709677,-103
540,0.183870968,-106
490,-0.138709677,-111
501,-0.067741935,-115
527,0.1,-120
524,0.080645161,-126
511,-0.003225806,123
517,0.035483871,118
535,0.151612903,114
512,0.003225806,110
503,-0.05483871,106
508,-0.022580645,100
522,0.067741935,95
523,0.074193548,91
509,-0.016129032,87
482,-0.190322581,83
499,-0.080645161,81
485,-0.170967742,79
513,0.009677419,77
506,-0.035483871,76
498,-0.087096774,75
512,0.003225806,74
517,0.035483871,73
502,-0.061290323,72
503,-0.05483871,70
509,-0.016129032,69
533,0.138709677,65
533,0.138709677,60
544,0.209677419,54
500,-0.074193548,-1
495,-0.106451613,-9
511,-0.003225806,-18
530,0.119354839,-27
536,0.158064516,-36
499,-0.080645161,-45
510,-0.009677419,-53
489,-0.14516129,-61
532,0.132258065,-66
485,-0.170967742,-73
492,-0.125806452,-84
536,0.158064516,-101
495,-0.106451613,-123
465,-0.3,108
511,-0.003225806,95
524,0.080645161,100
521,0.061290323,104
498,-0.087096774,103
487,-0.158064516,95
584,0.467741935,92
472,-0.25483871,91
481,-0.196774194,84
529,0.112903226,74
577,0.422580645,87
579,0.435483871,96
473,-0.248387097,99
565,0.34516129,94
586,0.480645161,99
401,-0.712903226,107
515,0.022580645,112
487,-0.158064516,111
552,0.261290323,99
508,-0.022580645,92
487,-0.158064516,86
494,-0.112903226,85
528,0.106451613,88
559,0.306451613,89
504,-0.048387097,92
493,-0.119354839,102
594,0.532258065,111
499,-0.080645161,123
531,0.125806452,-118
531,0.125806452,-102
530,0.119354839,-90
514,0.016129032,-80
506,-0.035483871,-71
501,-0.067741935,-58
529,0.112903226,-51
502,-0.061290323,-44
509,-0.016129032,-33
523,0.074193548,-20
529,0.112903226,-7
528,0.106451613,55
502,-0.061290323,67
512,0.003225806,77
518,0.041935484,85
516,0.029032258,97
533,0.138709677,106
520,0.05483871,114
518,0.041935484,123
499,-0.080645161,-125
512,0.003225806,-117
503,-0.05483871,-109
526,0.093548387,-97
517,0.035483871,-91
503,-0.05483871,-87
515,0.022580645,-83
522,0.067741935,-79
511,-0.003225806,-74
520,0.05483871,-69
535,0.151612903,-64
517,0.035483871,-58
504,-0.048387097,-57
497,-0.093548387,-57
539,0.177419355,-57
513,0.009677419,-57
516,0.029032258,-57
518,0.041935484,-56
521,0.061290323,-58
515,0.022580645,-61
497,-0.093548387,-64
478,-0.216129032,-67
478,-0.216129032,-69
517,0.035483871,-72
503,-0.05483871,-74
474,-0.241935484,-78
535,0.151612903,-82
511,-0.003225806,-88
499,-0.080645161,-91
505,-0.041935484,-94
521,0.061290323,-96
523,0.074193548,-98
494,-0.112903226,-100
508,-0.022580645,-102
515,0.022580645,-103
510,-0.009677419,-107
518,0.041935484,-108
526,0.093548387,-113
496,-0.1,-117
512,0.003225806,-123
512,0.003225806,-128
507,-0.029032258,123
472,-0.25483871,119
521,0.061290323,114
528,0.106451613,106
513,0.009677419,102
520,0.05483871,97
465,-0.3,91
468,-0.280645161,83
523,0.074193548,74
522,0.067741935,66
526,0.093548387,58
502,-0.061290323,-4
517,0.035483871,-13
507,-0.029032258,-20
507,-0.029032258,-25
488,-0.151612903,-28
521,0.061290323,-31
499,-0.080645161,-36
540,0.183870968,-43
477,-0.222580645,-64
536,0.158064516,-82
534,0.14516129,-100
466,-0.293548387,-114
519,0.048387097,125
531,0.125806452,98
497,-0.093548387,72
471,-0.261290323,53
583,0.461290323,43
492,-0.125806452,47
482,-0.190322581,50
519,0.048387097,50
529,0.112903226,44
533,0.138709677,41
431,-0.519354839,42
376,-0.874193548,39
511,-0.003225806,29
504,-0.048387097,14
384,-0.822580645,8
520,0.05483871,11
485,-0.170967742,20
490,-0.138709677,34
251,-1.680645161,50
568,0.364516129,67
581,0.448387097,98
533,0.138709677,117
373,-0.893548387,-122
538,0.170967742,-107
635,0.796774194,-102
536,0.158064516,-99
446,-0.422580645,-87
560,0.312903226,-74
641,0.835483871,-66
524,0.080645161,-59
411,-0.648387097,-56
547,0.229032258,-52
574,0.403225806,-50
500,-0.074193548,-41
485,-0.170967742,-26
515,0.022580645,-8
525,0.087096774,56
543,0.203225806,69
484,-0.177419355,71
525,0.087096774,73
526,0.093548387,76
514,0.016129032,80
500,-0.074193548,85
509,-0.016129032,92
509,-0.016129032,101
509,-0.016129032,118
488,-0.151612903,-126
522,0.067741935,-115
502,-0.061290323,-107
489,-0.14516129,-102
490,-0.138709677,-96
500,-0.074193548,-90
509,-0.016129032,-84
520,0.05483871,-82
518,0.041935484,-80
509,-0.016129032,-78
478,-0.216129032,-75
494,-0.112903226,-72
498,-0.087096774,-70
534,0.14516129,-71
506,-0.035483871,-74
497,-0.093548387,-76
507,-0.029032258,-78
503,-0.05483871,-79
501,-0.067741935,-81
485,-0.170967742,-84
501,-0.067741935,-88
499,-0.080645161,-91
516,0.029032258,-94
505,-0.041935484,-95
537,0.164516129,-94
503,-0.05483871,-94
475,-0.235483871,-94
554,0.274193548,-96
524,0.080645161,-98
505,-0.041935484,-101
511,-0.003225806,-103
518,0.041935484,-104
511,-0.003225806,-107
504,-0.048387097,-109
495,-0.106451613,-112
517,0.035483871,-114
525,0.087096774,-116
470,-0.267741935,-118
495,-0.106451613,-120
517,0.035483871,-124
529,0.112903226,126
509,-0.016129032,122
502,-0.061290323,119
520,0.05483871,116
511,-0.003225806,114
492,-0.125806452,112
526,0.093548387,110
536,0.158064516,107
473,-0.248387097,105
454,-0.370967742,102
512,0.003225806,99
512,0.003225806,95
505,-0.041935484,92
541,0.190322581,88
518,0.041935484,84
529,0.112903226,79
517,0.035483871,73
484,-0.177419355,65
519,0.048387097,59
501,-0.067741935,2
501,-0.067741935,-6
519,0.048387097,-15
512,0.003225806,-26
505,-0.041935484,-39
509,-0.016129032,-59
503,-0.05483871,-71
520,0.05483871,-78
535,0.151612903,-85
535,0.151612903,-96
491,-0.132258065,-111
514,0.016129032,-127
497,-0.093548387,117
535,0.151612903,98
483,-0.183870968,83
524,0.080645161,69
529,0.112903226,63
530,0.119354839,66
467,-0.287096774,64
519,0.048387097,61
544,0.209677419,59
459,-0.338709677,57
520,0.05483871,54
542,0.196774194,59
396,-0.74516129,67
533,0.138709677,70
456,-0.358064516,71
395,-0.751612903,75
553,0.267741935,75
483,-0.183870968,78
425,-0.558064516,86
493,-0.119354839,97
548,0.235483871,104
435,-0.493548387,103
506,-0.035483871,109
580,0.441935484,127
634,0.790322581,-108
508,-0.022580645,-90
515,0.022580645,-90
605,0.603225806,-98
497,-0.093548387,-103
587,0.487096774,-103
473,-0.248387097,-101
528,0.106451613,-98
474,-0.241935484,-89
493,-0.119354839,-70
493,-0.119354839,-35
531,0.125806452,-14
520,0.05483871,2
517,0.035483871,64
507,-0.029032258,73
525,0.087096774,80
499,-0.080645161,85
501,-0.067741935,89
525,0.087096774,96
523,0.074193548,100
517,0.035483871,107
519,0.048387097,114
521,0.061290323,122
519,0.048387097,-127
527,0.1,-120
521,0.061290323,-112
503,-0.05483871,-101
556,0.287096774,-91
501,-0.067741935,-82
472,-0.25483871,-75
516,0.029032258,-70
512,0.003225806,-66
522,0.067741935,-62
543,0.203225806,-58
549,0.241935484,-52
506,-0.035483871,-45
501,-0.067741935,-41
540,0.183870968,-40
518,0.041935484,-41
491,-0.132258065,-41
522,0.067741935,-41
512,0.003225806,-44
503,-0.05483871,-53
502,-0.061290323,-62
516,0.029032258,-72
510,-0.009677419,-82
496,-0.1,-91
528,0.106451613,-98
427,-0.54516129,-104
486,-0.164516129,-107
516,0.029032258,-107
523,0.074193548,-107
506,-0.035483871,-109
514,0.016129032,-112
528,0.106451613,-114
506,-0.035483871,-117
510,-0.009677419,-119
528,0.106451613,-122
537,0.164516129,-125
514,0.016129032,-128
533,0.138709677,127
516,0.029032258,125
521,0.061290323,122
513,0.009677419,118
552,0.261290323,115
524,0.080645161,111
498,-0.087096774,108
508,-0.022580645,104
515,0.022580645,101
484,-0.177419355,99
490,-0.138709677,97
519,0.048387097,95
535,0.151612903,93
531,0.125806452,91
506,-0.035483871,87
509,-0.016129032,86
510,-0.009677419,81
513,0.009677419,77
520,0.05483871,72
522,0.067741935,67
552,0.261290323,61
489,-0.14516129,55
540,0.183870968,0
474,-0.241935484,-7
507,-0.029032258,-18
520,0.05483871,-27
513,0.009677419,-38
497,-0.093548387,-49
524,0.080645161,-61
495,-0.106451613,-72
499,-0.080645161,-82
566,0.351612903,-100
521,0.061290323,-112
503,-0.05483871,-124
522,0.067741935,119
501,-0.067741935,105
538,0.170967742,91
529,0.112903226,79
521,0.061290323,70
491,-0.132258065,59
414,-0.629032258,43
468,-0.280645161,37
506,-0.035483871,34
553,0.267741935,37
579,0.435483871,46
425,-0.558064516,56
533,0.138709677,62
597,0.551612903,65
398,-0.732258065,62
375,-0.880645161,58
598,0.558064516,53
503,-0.05483871,51
513,0.009677419,62
487,-0.158064516,82
535,0.151612903,100
502,-0.061290323,109
469,-0.274193548,114
493,-0.119354839,121
570,0.377419355,-128
512,0.003225806,-118
494,-0.112903226,-104
403,-0.7,-89
532,0.132258065,-76
561,0.319354839,-75
499,-0.080645161,-84
462,-0.319354839,-96
509,-0.016129032,-93
528,0.106451613,-85
514,0.016129032,-72
478,-0.216129032,-55
516,0.029032258,-35
533,0.138709677,-16
511,-0.003225806,56
544,0.209677419,69
478,-0.216129032,79
570,0.377419355,88
508,-0.022580645,96
526,0.093548387,104
532,0.132258065,113
508,-0.022580645,123
520,0.05483871,-116
516,0.029032258,-106
496,-0.1,-98
506,-0.035483871,-92
550,0.248387097,-88
514,0.016129032,-83
509,-0.016129032,-78
496,-0.1,-74
521,0.061290323,-68
542,0.196774194,-60
514,0.016129032,-56
514,0.016129032,-53
528,0.106451613,-51
523,0.074193548,-49
509,-0.016129032,-47
504,-0.048387097,-48
511,-0.003225806,-52
520,0.05483871,-58
482,-0.190322581,-63
515,0.022580645,-67
520,0.05483871,-71
504,-0.048387097,-75
508,-0.022580645,-80
541,0.190322581,-85
489,-0.14516129,-91
499,-0.080645161,-93
518,0.041935484,-95
553,0.267741935,-97
472,-0.25483871,-98
490,-0.138709677,-100
547,0.229032258,-103
532,0.132258065,-108
507,-0.029032258,-109
495,-0.106451613,-113
466,-0.293548387,-114
518,0.041935484,-115
531,0.125806452,-116
508,-0.022580645,-118
544,0.209677419,-120
528,0.106451613,-123
510,-0.009677419,-125
518,0.041935484,127
486,-0.164516129,124
514,0.016129032,120
511,-0.003225806,117
511,-0.003225806,113
511,-0.003225806,111
518,0.041935484,109
541,0.190322581,106
502,-0.061290323,103
517,0.035483871,100
535,0.151612903,95
531,0.125806452,91
489,-0.14516129,87
520,0.05483871,85
511,-0.003225806,83
506,-0.035483871,81
514,0.016129032,77
519,0.048387097,71
513,0.009677419,67
483,-0.183870968,63
503,-0.05483871,58
499,-0.080645161,2
516,0.029032258,-4
526,0.093548387,-12
515,0.022580645,-25
514,0.016129032,-34
509,-0.016129032,-43
518,0.041935484,-50
496,-0.1,-62
492,-0.125806452,-76
605,0.603225806,-88
540,0.183870968,-95
543,0.203225806,-110
528,0.106451613,119
509,-0.016129032,85
500,-0.074193548,61
529,0.112903226,53
515,0.022580645,54
469,-0.274193548,51
518,0.041935484,50
457,-0.351612903,57
524,0.080645161,72
468,-0.280645161,80
525,0.087096774,93
525,0.087096774,103
443,-0.441935484,106
442,-0.448387097,105
530,0.119354839,104
417,-0.609677419,109
564,0.338709677,114
579,0.435483871,117
478,-0.216129032,126
461,-0.325806452,-116
445,-0.429032258,-105
497,-0.093548387,-101
493,-0.119354839,-102
521,0.061290323,-98
400,-0.719354839,-93
492,-0.125806452,-86
531,0.125806452,-82
493,-0.119354839,-84
414,-0.629032258,-94
540,0.183870968,-109
538,0.170967742,-123
434,-0.5,-125
512,0.003225806,-118
409,-0.661290323,-96
511,-0.003225806,-83
506,-0.035483871,-72
521,0.061290323,-61
519,0.048387097,-50
514,0.016129032,-38
516,0.029032258,-26
555,0.280645161,-7
482,-0.190322581,55
506,-0.035483871,68
555,0.280645161,79
519,0.048387097,90
519,0.048387097,99
506,-0.035483871,108
531,0.125806452,118
514,0.016129032,-124
509,-0.016129032,-116
532,0.132258065,-108
512,0.003225806,-102
500,-0.074193548,-97
516,0.029032258,-91
528,0.106451613,-85
512,0.003225806,-81
529,0.112903226,-80
516,0.029032258,-77
497,-0.093548387,-76
532,0.132258065,-75
511,-0.003225806,-77
531,0.125806452,-79
551,0.25483871,-83
519,0.048387097,-86
546,0.222580645,-87
505,-0.041935484,-87
502,-0.061290323,-88
514,0.016129032,-91
503,-0.05483871,-95
516,0.029032258,-98
533,0.138709677,-99
510,-0.009677419,-99
503,-0.05483871,-101
521,0.061290323,-103
525,0.087096774,-105
488,-0.151612903,-105
497,-0.093548387,-105
534,0.14516129,-105
517,0.035483871,-105
506,-0.035483871,-105
506,-0.035483871,-103
525,0.087096774,-102
510,-0.009677419,-102
505,-0.041935484,-104
495,-0.106451613,-106
500,-0.074193548,-108
530,0.119354839,-111
520,0.05483871,-114
500,-0.074193548,-117
513,0.009677419,-121
521,0.061290323,-125
514,0.016129032,126
493,-0.119354839,123
515,0.022580645,119
532,0.132258065,116
505,-0.041935484,112
516,0.029032258,104
497,-0.093548387,101
521,0.061290323,94
492,-0.125806452,91
507,-0.029032258,89
521,0.061290323,89
502,-0.061290323,89
529,0.112903226,89
522,0.067741935,89
517,0.035483871,87
510,-0.009677419,85
517,0.035483871,83
504,-0.048387097,80
531,0.125806452,76
523,0.074193548,70
522,0.067741935,63
480,-0.203225806,54
544,0.209677419,-10
485,-0.170967742,-23
468,-0.280645161,-38
591,0.512903226,-56
505,-0.041935484,-80
465,-0.3,-109
499,-0.080645161,120
525,0.087096774,104
502,-0.061290323,100
492,-0.125806452,90
513,0.009677419,78
493,-0.119354839,72
563,0.332258065,76
508,-0.022580645,79
470,-0.267741935,75
558,0.3,70
509,-0.016129032,75
568,0.364516129,95
490,-0.138709677,107
506,-0.035483871,109
547,0.229032258,102
383,-0.829032258,100
561,0.319354839,100
487,-0.158064516,103
435,-0.493548387,100
514,0.016129032,99
610,0.635483871,99
489,-0.14516129,101
554,0.274193548,102
483,-0.183870968,102
524,0.080645161,106
447,-0.416129032,118
477,-0.222580645,-125
542,0.196774194,-117
533,0.138709677,-124
501,-0.067741935,122
373,-0.893548387,121
544,0.209677419,-121
541,0.190322581,-103
505,-0.041935484,-86
495,-0.106451613,-71
478,-0.216129032,-54
512,0.003225806,-48
545,0.216129032,-42
507,-0.029032258,-35
518,0.041935484,-27
530,0.119354839,-19
513,0.009677419,-12
501,-0.067741935,-6
480,-0.203225806,53
515,0.022580645,62
517,0.035483871,74
522,0.067741935,86
508,-0.022580645,99
506,-0.035483871,112
510,-0.009677419,122
542,0.196774194,-121
511,-0.003225806,-118
514,0.016129032,-110
498,-0.087096774,-105
501,-0.067741935,-102
515,0.022580645,-101
511,-0.003225806,-99
529,0.112903226,-97
517,0.035483871,-93
496,-0.1,-88
524,0.080645161,-81
531,0.125806452,-78
524,0.080645161,-76
531,0.125806452,-76
578,0.429032258,-75
520,0.05483871,-74
511,-0.003225806,-76
549,0.241935484,-80
509,-0.016129032,-83
543,0.203225806,-85
511,-0.003225806,-83
518,0.041935484,-81
505,-0.041935484,-79
501,-0.067741935,-79
533,0.138709677,-83
515,0.022580645,-88
504,-0.048387097,-93
516,0.029032258,-96
514,0.016129032,-99
510,-0.009677419,-102
519,0.048387097,-104
505,-0.041935484,-106
495,-0.106451613,-105
523,0.074193548,-104
519,0.048387097,-100
461,-0.325806452,-100
522,0.067741935,-103
520,0.05483871,-108
522,0.067741935,-114
506,-0.035483871,-119
533,0.138709677,-125
515,0.022580645,124
526,0.093548387,119
520,0.05483871,116
517,0.035483871,113
517,0.035483871,111
516,0.029032258,110
531,0.125806452,111
513,0.009677419,112
541,0.190322581,113
521,0.061290323,115
508,-0.022580645,115
503,-0.05483871,113
520,0.05483871,110
528,0.106451613,104
519,0.048387097,99
495,-0.106451613,93
500,-0.074193548,88
528,0.106451613,79
509,-0.016129032,71
523,0.074193548,61
509,-0.016129032,0
517,0.035483871,-12
526,0.093548387,-24
500,-0.074193548,-34
510,-0.009677419,-41
502,-0.061290323,-48
528,0.106451613,-48
523,0.074193548,-50
496,-0.1,-55
502,-0.061290323,-64
537,0.164516129,-71
497,-0.093548387,-71
502,-0.061290323,-85
487,-0.158064516,-96
527,0.1,119
538,0.170967742,100
435,-0.493548387,88
538,0.170967742,74
520,0.05483871,60
526,0.093548387,61
507,-0.029032258,66
474,-0.241935484,65
544,0.209677419,64
453,-0.377419355,67
531,0.125806452,77
536,0.158064516,83
512,0.003225806,87
380,-0.848387097,83
654,0.919354839,72
453,-0.377419355,66
611,0.641935484,71
670,1.022580645,83
446,-0.422580645,92
628,0.751612903,104
556,0.287096774,118
535,0.151612903,-128
503,-0.05483871,-124
652,0.906451613,-123
463,-0.312903226,-122
338,-1.119354839,-105
562,0.325806452,-95
565,0.34516129,-89
426,-0.551612903,-88
440,-0.461290323,-87
554,0.274193548,-85
598,0.558064516,-82
500,-0.074193548,-79
478,-0.216129032,-76
548,0.235483871,-74
528,0.106451613,-74
487,-0.158064516,-66
433,-0.506451613,-50
520,0.05483871,-30
533,0.138709677,-14
564,0.338709677,0
454,-0.370967742,53
493,-0.119354839,59
524,0.080645161,66
499,-0.080645161,75
519,0.048387097,85
521,0.061290323,97
511,-0.003225806,114
498,-0.087096774,119
500,-0.074193548,-123
511,-0.003225806,-115
517,0.035483871,-109
532,0.132258065,-104
506,-0.035483871,-100
506,-0.035483871,-97
457,-0.351612903,-93
530,0.119354839,-89
500,-0.074193548,-84
519,0.048387097,-80
519,0.048387097,-77
514,0.016129032,-75
482,-0.190322581,-73
515,0.022580645,-73
510,-0.009677419,-73
533,0.138709677,-74
527,0.1,-74
506,-0.035483871,-75
505,-0.041935484,-75
510,-0.009677419,-76
486,-0.164516129,-77
515,0.022580645,-80
519,0.048387097,-85
531,0.125806452,-90
512,0.003225806,-98
501,-0.067741935,-101
480,-0.203225806,-102
514,0.016129032,-103
545,0.216129032,-102
472,-0.25483871,-103
514,0.016129032,-105
489,-0.14516129,-107
525,0.087096774,-110
509,-0.016129032,-111
500,-0.074193548,-111
510,-0.009677419,-112
536,0.158064516,-113
512,0.003225806,-114
507,-0.029032258,-116
517,0.035483871,-119
519,0.048387097,-123
514,0.016129032,-127
508,-0.022580645,124
515,0.022580645,120
524,0.080645161,117
477,-0.222580645,115
511,-0.003225806,112
511,-0.003225806,110
513,0.009677419,106
521,0.061290323,98
511,-0.003225806,93
519,0.048387097,88
514,0.016129032,84
515,0.022580645,79
524,0.080645161,73
488,-0.151612903,67
525,0.087096774,57
511,-0.003225806,0
505,-0.041935484,-6
499,-0.080645161,-8
521,0.061290323,-4
519,0.048387097,-1
536,0.158064516,-1
516,0.029032258,-3
515,0.022580645,-8
539,0.177419355,-10
462,-0.319354839,-26
510,-0.009677419,-40
477,-0.222580645,-52
533,0.138709677,-59
510,-0.009677419,-62
589,0.5,-75
502,-0.061290323,-83
449,-0.403225806,-116
542,0.196774194,119
509,-0.016129032,104
520,0.05483871,92
487,-0.158064516,81
563,0.332258065,71
456,-0.358064516,74
495,-0.106451613,78
530,0.119354839,71
576,0.416129032,68
511,-0.003225806,67
419,-0.596774194,67
562,0.325806452,68
628,0.751612903,78
516,0.029032258,86
434,-0.5,92
558,0.3,88
529,0.112903226,91
403,-0.7,95
459,-0.338709677,99
555,0.280645161,99
647,0.874193548,104
458,-0.34516129,118
527,0.1,-121
610,0.635483871,-105
520,0.05483871,-92
540,0.183870968,-89
572,0.390322581,-91
480,-0.203225806,-91
496,-0.1,-90
484,-0.177419355,-88
410,-0.65483871,-89
567,0.358064516,-96
475,-0.235483871,-98
490,-0.138709677,-85
371,-0.906451613,-65
629,0.758064516,-51
583,0.461290323,-47
479,-0.209677419,-45
465,-0.3,-40
516,0.029032258,-29
500,-0.074193548,-22
478,-0.216129032,-12
556,0.287096774,-1
545,0.216129032,59
482,-0.190322581,70
493,-0.119354839,80
522,0.067741935,92
531,0.125806452,106
530,0.119354839,125
516,0.029032258,-119
509,-0.016129032,-111
525,0.087096774,-106
489,-0.14516129,-101
488,-0.151612903,-98
510,-0.009677419,-95
487,-0.158064516,-91
501,-0.067741935,-84
520,0.05483871,-80
508,-0.022580645,-78
509,-0.016129032,-75
521,0.061290323,-73
519,0.048387097,-72
521,0.061290323,-71
543,0.203225806,-70
505,-0.041935484,-71
475,-0.235483871,-73
519,0.048387097,-75
521,0.061290323,-79
524,0.080645161,-83
544,0.209677419,-85
498,-0.087096774,-87
506,-0.035483871,-88
507,-0.029032258,-89
513,0.009677419,-91
484,-0.177419355,-92
542,0.196774194,-93
492,-0.125806452,-94
481,-0.196774194,-96
555,0.280645161,-97
557,0.293548387,-100
485,-0.170967742,-105
494,-0.112903226,-107
546,0.222580645,-109
555,0.280645161,-111
496,-0.1,-112
503,-0.05483871,-115
542,0.196774194,-119
530,0.119354839,-124
513,0.009677419,127
502,-0.061290323,126
529,0.112903226,122
500,-0.074193548,120
507,-0.029032258,117
532,0.132258065,114
517,0.035483871,112
523,0.074193548,112
509,-0.016129032,111
535,0.151612903,110
513,0.009677419,108
535,0.151612903,107
506,-0.035483871,106
538,0.170967742,105
523,0.074193548,102
510,-0.009677419,97
517,0.035483871,91
504,-0.048387097,81
520,0.05483871,74
488,-0.151612903,66
523,0.074193548,56
490,-0.138709677,-6
505,-0.041935484,-19
532,0.132258065,-30
502,-0.061290323,-44
455,-0.364516129,-48
547,0.229032258,-57
519,0.048387097,-66
522,0.067741935,-77
458,-0.34516129,-87
541,0.190322581,-93
463,-0.312903226,-99
533,0.138709677,-112
538,0.170967742,115
534,0.14516129,101
520,0.05483871,94
497,-0.093548387,90
523,0.074193548,90
556,0.287096774,90
462,-0.319354839,83
561,0.319354839,73
564,0.338709677,67
529,0.112903226,67
452,-0.383870968,62
449,-0.403225806,55
622,0.712903226,46
497,-0.093548387,37
402,-0.706451613,36
596,0.54516129,42
550,0.248387097,47
378,-0.861290323,76
505,-0.041935484,96
641,0.835483871,110
469,-0.274193548,123
443,-0.441935484,-121
562,0.325806452,-115
528,0.106451613,-115
549,0.241935484,-116
445,-0.429032258,-105
438,-0.474193548,-95
568,0.364516129,-82
424,-0.564516129,-73
533,0.138709677,-71
629,0.758064516,-73
490,-0.138709677,-76
449,-0.403225806,-68
534,0.14516129,-51
536,0.158064516,-32
506,-0.035483871,-17
487,-0.158064516,-8
519,0.048387097,-5
527,0.1,-3
512,0.003225806,-1
511,-0.003225806,56
505,-0.041935484,60
517,0.035483871,74
508,-0.022580645,83
510,-0.009677419,92
497,-0.093548387,100
514,0.016129032,107
509,-0.016129032,112
510,-0.009677419,117
512,0.003225806,122
508,-0.022580645,126
564,0.338709677,-127
489,-0.14516129,-123
509,-0.016129032,-119
547,0.229032258,-114
519,0.048387097,-109
514,0.016129032,-104
515,0.022580645,-98
514,0.016129032,-94
563,0.332258065,-90
545,0.216129032,-87
519,0.048387097,-83
514,0.016129032,-80
553,0.267741935,-78
543,0.203225806,-75
517,0.035483871,-75
522,0.067741935,-74
521,0.061290323,-75
512,0.003225806,-77
503,-0.05483871,-78
490,-0.138709677,-79
513,0.009677419,-79
510,-0.009677419,-79
523,0.074193548,-80
533,0.138709677,-85
518,0.041935484,-88
531,0.125806452,-91
499,-0.080645161,-95
522,0.067741935,-100
529,0.112903226,-106
519,0.048387097,-112
514,0.016129032,-119
515,0.022580645,-124
522,0.067741935,-128
509,-0.016129032,124
506,-0.035483871,121
514,0.016129032,119
523,0.074193548,118
504,-0.048387097,117
507,-0.029032258,118
516,0.029032258,117
496,-0.1,114
506,-0.035483871,110
481,-0.196774194,107
529,0.112903226,105
524,0.080645161,103
498,-0.087096774,101
531,0.125806452,97
465,-0.3,92
515,0.022580645,90
526,0.093548387,89
529,0.112903226,88
532,0.132258065,88
503,-0.05483871,88
530,0.119354839,88
520,0.05483871,87
551,0.25483871,83
519,0.048387097,78
503,-0.05483871,70
528,0.106451613,58
517,0.035483871,-4
503,-0.05483871,-16
534,0.14516129,-26
509,-0.016129032,-37
525,0.087096774,-40
523,0.074193548,-53
517,0.035483871,-62
478,-0.216129032,-69
498,-0.087096774,-75
551,0.25483871,-85
511,-0.003225806,-99
505,-0.041935484,-112
562,0.325806452,-123
538,0.170967742,125
467,-0.287096774,-127
576,0.416129032,-125
481,-0.196774194,127
512,0.003225806,119
475,-0.235483871,114
442,-0.448387097,113
484,-0.177419355,104
519,0.048387097,105
469,-0.274193548,109
469,-0.274193548,104
510,-0.009677419,95
462,-0.319354839,84
483,-0.183870968,84
547,0.229032258,97
529,0.112903226,111
430,-0.525806452,118
560,0.312903226,118
494,-0.112903226,112
453,-0.377419355,110
445,-0.429032258,113
566,0.351612903,115
546,0.222580645,113
488,-0.151612903,112
514,0.016129032,119
582,0.45483871,127
532,0.132258065,-124
441,-0.45483871,-123
458,-0.34516129,-118
505,-0.041935484,-110
495,-0.106451613,-103
627,0.74516129,-88
489,-0.14516129,-79
467,-0.287096774,-77
513,0.009677419,-77
553,0.267741935,-72
473,-0.248387097,-59
516,0.029032258,-42
512,0.003225806,-24
519,0.048387097,-11
550,0.248387097,-3
510,-0.009677419,2
494,-0.112903226,55
526,0.093548387,59
502,-0.061290323,65
489,-0.14516129,74
527,0.1,84
504,-0.048387097,96
512,0.003225806,114
529,0.112903226,125
516,0.029032258,-121
512,0.003225806,-112
519,0.048387097,-104
503,-0.05483871,-98
510,-0.009677419,-93
512,0.003225806,-88
517,0.035483871,-82
513,0.009677419,-80
509,-0.016129032,-76
474,-0.241935484,-73
531,0.125806452,-69
485,-0.170967742,-66
517,0.035483871,-63
528,0.106451613,-60
510,-0.009677419,-60
513,0.009677419,-60
507,-0.029032258,-61
496,-0.1,-64
507,-0.029032258,-68
511,-0.003225806,-72
494,-0.112903226,-75
480,-0.203225806,-77
544,0.209677419,-80
495,-0.106451613,-83
493,-0.119354839,-86
498,-0.087096774,-91
546,0.222580645,-95
500,-0.074193548,-99
487,-0.158064516,-101
519,0.048387097,-104
566,0.351612903,-109
529,0.112903226,-112
480,-0.203225806,-116
536,0.158064516,-119
556,0.287096774,-122
495,-0.106451613,-124
508,-0.022580645,-128
516,0.029032258,125
527,0.1,121
512,0.003225806,119
520,0.05483871,115
528,0.106451613,110
528,0.106451613,105
509,-0.016129032,100
515,0.022580645,96
534,0.14516129,93
509,-0.016129032,91
512,0.003225806,89
516,0.029032258,88
516,0.029032258,87
511,-0.003225806,86
504,-0.048387097,85
512,0.003225806,83
519,0.048387097,81
501,-0.067741935,77
490,-0.138709677,70
499,-0.080645161,63
519,0.048387097,56
495,-0.106451613,-2
532,0.132258065,-11
530,0.119354839,-18
516,0.029032258,-22
503,-0.05483871,-25
537,0.164516129,-30
509,-0.016129032,-37
489,-0.14516129,-43
510,-0.009677419,-51
528,0.106451613,-60
466,-0.293548387,-72
491,-0.132258065,-85
513,0.009677419,-101
544,0.209677419,-123
482,-0.190322581,120
525,0.087096774,109
570,0.377419355,104
487,-0.158064516,105
499,-0.080645161,104
449,-0.403225806,93
461,-0.325806452,76
528,0.106451613,65
500,-0.074193548,67
473,-0.248387097,75
568,0.364516129,75
477,-0.222580645,69
503,-0.05483871,65
542,0.196774194,59
541,0.190322581,52
580,0.441935484,49
559,0.306451613,53
542,0.196774194,55
575,0.409677419,61
528,0.106451613,72
523,0.074193548,86
434,-0.5,101
592,0.519354839,120
545,0.216129032,-117
507,-0.029032258,-98
483,-0.183870968,-90
500,-0.074193548,-77
528,0.106451613,-62
472,-0.25483871,-48
544,0.209677419,-37
534,0.14516129,-33
462,-0.319354839,-34
500,-0.074193548,-35
519,0.048387097,-32
522,0.067741935,-25
509,-0.016129032,-16
516,0.029032258,-5
505,-0.041935484,55
498,-0.087096774,64
514,0.016129032,70
488,-0.151612903,76
537,0.164516129,82
518,0.041935484,88
510,-0.009677419,94
520,0.05483871,102
561,0.319354839,109
502,-0.061290323,116
512,0.003225806,124
537,0.164516129,-120
519,0.048387097,-112
510,-0.009677419,-105
493,-0.119354839,-98
517,0.035483871,-91
517,0.035483871,-84
526,0.093548387,-79
527,0.1,-74
516,0.029032258,-66
513,0.009677419,-65
515,0.022580645,-61
567,0.358064516,-60
520,0.05483871,-59
512,0.003225806,-58
531,0.125806452,-58
549,0.241935484,-57
491,-0.132258065,-56
516,0.029032258,-57
519,0.048387097,-61
473,-0.248387097,-67
537,0.164516129,-73
446,-0.422580645,-80
496,-0.1,-87
527,0.1,-92
513,0.009677419,-96
507,-0.029032258,-100
521,0.061290323,-103
522,0.067741935,-107
499,-0.080645161,-112
530,0.119354839,-117
511,-0.003225806,-122
506,-0.035483871,-126
478,-0.216129032,126
514,0.016129032,123
517,0.035483871,120
502,-0.061290323,117
511,-0.003225806,113
521,0.061290323,109
510,-0.009677419,107
521,0.061290323,105
526,0.093548387,103
534,0.14516129,101
511,-0.003225806,98
529,0.112903226,97
510,-0.009677419,96
521,0.061290323,94
523,0.074193548,93
517,0.035483871,91
516,0.029032258,90
512,0.003225806,85
514,0.016129032,80
505,-0.041935484,75
512,0.003225806,68
530,0.119354839,60
525,0.087096774,0
501,-0.067741935,-12
523,0.074193548,-23
496,-0.1,-40
551,0.25483871,-52
508,-0.022580645,-64
535,0.151612903,-72
531,0.125806452,-80
529,0.112903226,-87
491,-0.132258065,-95
510,-0.009677419,-102
502,-0.061290323,-112
500,-0.074193548,124
513,0.009677419,112
523,0.074193548,100
508,-0.022580645,84
480,-0.203225806,68
547,0.229032258,58
538,0.170967742,57
508,-0.022580645,62
500,-0.074193548,63
483,-0.183870968,59
492,-0.125806452,58
475,-0.235483871,57
508,-0.022580645,58
515,0.022580645,62
540,0.183870968,64
482,-0.190322581,66
567,0.358064516,67
377,-0.867741935,77
598,0.558064516,89
628,0.751612903,104
508,-0.022580645,122
478,-0.216129032,-118
653,0.912903226,-110
469,-0.274193548,-103
488,-0.151612903,-95
570,0.377419355,-89
551,0.25483871,-90
480,-0.203225806,-96
499,-0.080645161,-96
477,-0.222580645,-88
378,-0.861290323,-78
497,-0.093548387,-64
461,-0.325806452,-49
528,0.106451613,-47
505,-0.041935484,-47
548,0.235483871,-44
504,-0.048387097,-39
474,-0.241935484,-33
472,-0.25483871,-26
560,0.312903226,-19
515,0.022580645,-7
504,-0.048387097,1
496,-0.1,60
519,0.048387097,71
553,0.267741935,82
472,-0.25483871,94
546,0.222580645,106
525,0.087096774,119
510,-0.009677419,-125
504,-0.048387097,-109
517,0.035483871,-100
507,-0.029032258,-92
509,-0.016129032,-83
505,-0.041935484,-75
546,0.222580645,-67
518,0.041935484,-62
512,0.003225806,-59
529,0.112903226,-55
502,-0.061290323,-55
522,0.067741935,-55
512,0.003225806,-54
505,-0.041935484,-53
516,0.029032258,-52
474,-0.241935484,-52
507,-0.029032258,-57
516,0.029032258,-59
517,0.035483871,-64
519,0.048387097,-66
511,-0.003225806,-69
511,-0.003225806,-73
503,-0.05483871,-78
514,0.016129032,-82
515,0.022580645,-87
524,0.080645161,-95
457,-0.351612903,-100
520,0.05483871,-105
545,0.216129032,-109
502,-0.061290323,-112
514,0.016129032,-114
514,0.016129032,-115
523,0.074193548,-117
508,-0.022580645,-119
515,0.022580645,-118
490,-0.138709677,-117
542,0.196774194,-117
503,-0.05483871,-118
496,-0.1,-120
536,0.158064516,-121
518,0.041935484,-126
527,0.1,-128
500,-0.074193548,119
513,0.009677419,112
492,-0.125806452,105
517,0.035483871,98
510,-0.009677419,92
508,-0.022580645,87
521,0.061290323,84
526,0.093548387,81
492,-0.125806452,78
490,-0.138709677,76
520,0.05483871,75
512,0.003225806,73
514,0.016129032,71
514,0.016129032,68
516,0.029032258,65
534,0.14516129,62
495,-0.106451613,60
522,0.067741935,57
509,-0.016129032,54
511,-0.003225806,1
488,-0.151612903,-1
507,-0.029032258,-5
509,-0.016129032,-8
485,-0.170967742,-11
511,-0.003225806,-16
509,-0.016129032,-23
516,0.029032258,-29
534,0.14516129,-36
518,0.041935484,-46
506,-0.035483871,-60
537,0.164516129,-76
498,-0.087096774,-89
512,0.003225806,-101
584,0.467741935,-107
478,-0.216129032,-115
503,-0.05483871,-127
569,0.370967742,120
519,0.048387097,114
527,0.1,105
526,0.093548387,91
419,-0.596774194,81
501,-0.067741935,88
527,0.1,92
532,0.132258065,87
524,0.080645161,76
501,-0.067741935,79
454,-0.370967742,86
470,-0.267741935,88
512,0.003225806,83
566,0.351612903,65
479,-0.209677419,52
529,0.112903226,58
576,0.416129032,76
504,-0.048387097,91
487,-0.158064516,96
510,-0.009677419,95
607,0.616129032,99
605,0.603225806,115
412,-0.641935484,-128
506,-0.035483871,-119
610,0.635483871,-115
549,0.241935484,-111
472,-0.25483871,-107
282,-1.480645161,-99
656,0.932258065,-87
395,-0.751612903,-84
462,-0.319354839,-84
575,0.409677419,-84
534,0.14516129,-80
482,-0.190322581,-72
521,0.061290323,-63
559,0.306451613,-57
506,-0.035483871,-48
476,-0.229032258,-42
512,0.003225806,-16
532,0.132258065,53
522,0.067741935,71
506,-0.035483871,85
524,0.080645161,92
500,-0.074193548,96
512,0.003225806,97
492,-0.125806452,101
519,0.048387097,107
557,0.293548387,115
515,0.022580645,124
506,-0.035483871,-124
504,-0.048387097,-118
515,0.022580645,-113
512,0.003225806,-109
524,0.080645161,-103
508,-0.022580645,-101
540,0.183870968,-100
510,-0.009677419,-98
531,0.125806452,-95
464,-0.306451613,-91
523,0.074193548,-87
520,0.05483871,-81
529,0.112903226,-80
514,0.016129032,-77
516,0.029032258,-75
491,-0.132258065,-72
554,0.274193548,-70
507,-0.029032258,-67
518,0.041935484,-66
563,0.332258065,-67
501,-0.067741935,-71
506,-0.035483871,-73
523,0.074193548,-75
510,-0.009677419,-77
512,0.003225806,-80
510,-0.009677419,-84
523,0.074193548,-89
526,0.093548387,-94
505,-0.041935484,-100
517,0.035483871,-104
515,0.022580645,-108
510,-0.009677419,-112
517,0.035483871,-117
515,0.022580645,-122
519,0.048387097,-126
502,-0.061290323,126
515,0.022580645,125
507,-0.029032258,124
523,0.074193548,123
510,-0.009677419,122
533,0.138709677,123
499,-0.080645161,124
516,0.029032258,124
513,0.009677419,122
517,0.035483871,121
520,0.05483871,116
510,-0.009677419,113
514,0.016129032,109
507,-0.029032258,105
509,-0.016129032,100
509,-0.016129032,96
526,0.093548387,92
529,0.112903226,86
520,0.05483871,82
515,0.022580645,78
521,0.061290323,75
505,-0.041935484,71
518,0.041935484,66
526,0.093548387,59
545,0.216129032,2
513,0.009677419,-5
