train_set
0.071254942
0.076799429
0.082059844
0.086630357
0.090223036
0.092553722
0.093579418
0.093221991
0.09157557
0.088903123
0.085598441
0.082054512
0.078808941
0.076388841
0.075206732
0.075810648
0.07845756
0.083285532
0.090376757
0.099562905
0.110587179
0.122943407
0.136214612
0.149726339
0.163046912
0.175668293
0.187308839
0.19786813
0.2074157
0.216210987
0.22465981
0.233209902
0.242354456
0.252380995
0.263505131
0.275588763
0.288281921
0.30095646
0.312795307
0.322833341
0.330113635
0.333764568
0.333108799
0.327743551
0.317635438
0.303095739
0.284707026
0.263308756
0.239961815
0.215754555
0.191735196
0.168767338
0.147599783
0.128701827
0.112187798
0.09816953
0.086497244
0.076876113
0.068973034
0.062605027
0.057558777
0.053766305
0.051291848
0.050110582
0.128701827
0.112187798
0.09816953
0.086497244
0.076876113
0.068973034
0.062605027
0.057558777
0.053766305
0.051291848
0.050110582
0.050405999
0.052306959
0.055799788
0.060909669
0.067460019
0.075258501
0.083830387
0.092798914
0.101499178
0.109396868
0.115919998
0.120563799
0.122952182
0.122899407
0.120330298
0.115405657
0.108373473
0.099643019
0.089656242
0.078987332
0.068126111
0.057586998
0.047797396
0.039123796
0.03177855
0.025927375
0.021599833
0.01869695
0.017123298
0.016675114
0.017143666
0.018352316
0.020125758
0.022293849
0.024746011
0.027527617
0.030592497
0.033925185
0.037638243
0.041704933
0.046061589
0.050723766
0.055697182
0.060879933
0.066271979
0.071880206
0.077727009
0.083882094
0.090650001
0.098262372
0.107026118
0.1173089
0.129490906
0.050723766
0.055697182
0.060879933
0.066271979
0.071880206
0.077727009
0.083882094
0.090650001
0.098262372
0.107026118
0.1173089
0.129490906
0.143923531
0.160850956
0.180289404
0.202099823
0.225891222
0.251071062
0.276779351
0.30186512
0.325268751
0.345619312
0.361969288
0.373213922
0.378768005
0.378321717
0.371959606
0.36033005
0.344378962
0.325573736
0.305540708
0.286178659
0.269230864
0.256388915
0.248986336
0.247892076
0.2534416
0.265360427
0.282797674
0.304398506
0.328437858
0.352903771
0.375640467
0.394694063
0.408398888
0.415329157
0.41473988
0.406406873
0.390615187
0.368163634
0.34032467
0.308571189
0.27450544
0.239819843
0.205999758
0.17424604
0.145621185
0.12079741
0.100146153
0.083710046
0.071368243
0.062799826
0.057612128
0.055317945
0.083710046
0.071368243
0.062799826
0.057612128
0.055317945
0.055435143
0.057402396
0.060782457
0.065212327
0.070131473
0.07532032
0.080315181
0.08504251
0.089222401
0.092805772
0.095804276
0.098249382
0.100373038
0.102318319
0.104420943
0.106839928
0.109787252
0.113295337
0.117326557
0.121677288
0.12608284
0.130128262
0.133348884
0.135322631
0.135692754
0.134234945
0.130873953
0.12564838
0.11883057
0.110791032
0.101977346
0.092917777
0.08408698
0.075930796
0.068776057
0.062880267
0.058338327
0.055107996
0.053107139
0.052101787
0.051948278
0.052359326
0.053037992
0.053795936
0.054415851
0.05475624
0.054755318
0.054364808
0.05347757
0.0523889
0.051143176
0.050000868
0.04936482
0.049644868
0.051405679
0.055221958
0.06176274
0.071490885
0.084646694
0.051143176
0.050000868
0.04936482
0.049644868
0.051405679
0.055221958
0.06176274
0.071490885
0.084646694
0.101464866
0.121731588
0.145019016
0.170642427
0.197617555
0.224849294
0.251035728
0.27498584
0.29554413
0.311676359
0.322838615
0.328629735
0.329167861
0.324848521
0.316481237
0.305088778
0.291908414
0.278170664
0.265123508
0.25382999
0.245102642
0.239463481
0.237051982
0.237634093
0.240640384
0.245231454
0.250362398
0.25492547
0.257843506
0.258104577
0.255049289
0.248243608
0.237570147
0.223278648
0.205962341
0.186425698
0.165663675
0.144787876
0.124633262
0.10616265
0.089933881
0.076289306
0.065352612
0.056961615
0.050809128
0.046401747
0.043297812
0.041027517
0.038988089
0.036994452
0.034841788
0.032499172
0.030185049
0.028074735
0.026575497
0.089933881
0.076289306
0.065352612
0.056961615
0.050809128
0.046401747
0.043297812
0.041027517
0.038988089
0.036994452
0.034841788
0.032499172
0.030185049
0.028074735
0.026575497
0.025945184
0.026516969
0.02857299
0.03214794
0.037366757
0.044069476
0.052163292
0.061338698
0.071320855
0.0817039
0.09209126
0.102054827
0.111197374
0.119167177
0.125662808
0.130465483
0.133412843
0.134448366
0.133576902
0.130874625
0.126493259
0.120646738
0.11356137
0.105556838
0.09692386
0.087976099
0.079054477
0.070513194
0.06264843
0.055704114
0.049941286
0.045522807
0.042605556
0.041213903
0.04131151
0.042792103
0.045438909
0.049105624
0.053499823
0.058333209
0.063420833
0.068509688
0.073454162
0.078132607
0.082488368
0.086542157
0.090445482
0.094252634
0.098217201
0.045438909
0.049105624
0.053499823
0.058333209
0.063420833
0.068509688
0.073454162
0.078132607
0.082488368
0.086542157
0.090445482
0.094252634
0.098217201
0.102473121
0.107085538
0.112168313
0.117720797
0.123819095
0.130338349
0.136992461
0.143474392
0.149568071
0.154994102
0.15960935
0.163472946
0.166635109
0.169231419
0.171799565
0.17472458
0.178427267
0.183503708
0.190326938
0.199167197
0.210197504
0.223434006
0.238658053
0.255552362
0.273670364
0.292472877
0.311352262
0.329729305
0.347028935
0.362624744
0.375951284
0.386408057
0.393536557
0.396789522
0.395713716
0.390024674
0.379446569
0.364080997
0.34417921
0.320256637
0.293173886
0.26394659
0.233879925
0.204258667
0.176397961
0.151388353
0.130147278
0.113224649
0.100893377
0.093107036
0.089356738
0.100893377
0.093107036
0.089356738
0.088941037
0.090981326
0.094654252
0.099256868
0.104050347
0.108468615
0.112235914
0.115267589
0.117578776
0.119432093
0.121081758
0.122535737
0.124035949
0.125582396
0.126990814
0.128208765
0.129052671
0.129241595
0.12857218
0.126921815
0.124173485
0.120301158
0.115401608
0.109675449
0.103395877
0.096926858
0.090705041
0.085163632
0.080731303
0.07773894
0.076497822
0.077112512
0.079543277
0.083635117
0.089001038
0.0952263
0.101732297
0.107918738
0.113208801
0.117098933
0.119218175
0.11929164
0.117286841
0.113290851
0.107530146
0.100407223
0.092422118
0.08420519
0.076367002
0.069458587
0.063988536
0.060263452
0.058631107
0.059156016
0.061807121
0.066456961
0.072857704
0.080520929
0.089037169
0.097849499
0.106546996
0.060263452
0.058631107
0.059156016
0.061807121
0.066456961
0.072857704
0.080520929
0.089037169
0.097849499
0.106546996
0.114668948
0.121838758
0.127878229
0.132630177
0.136383468
0.139252046
0.141644292
0.144129463
0.147157079
0.15135565
0.157284115
0.165531439
0.176449817
0.190400633
0.207438708
0.227476747
0.250187748
0.274950515
0.301029682
0.327476228
0.353239618
0.377184483
0.398173236
0.415205899
0.427435084
0.434227789
0.435290355
0.430602828
0.420477639
0.405505663
0.386446502
0.364210088
0.339774314
0.314094806
0.28800242
0.262266722
0.23739692
0.213806024
0.191757674
0.171335245
0.152637968
0.135699938
0.120529352
0.107193804
0.09586365
0.086532523
0.079299178
0.074101971
0.070911909
0.069580926
0.069762656
0.071200205
0.073330992
0.075856532
0.070911909
0.069580926
0.069762656
0.071200205
0.073330992
0.075856532
0.078294257
0.080255629
0.08153934
0.081824029
0.081112341
0.079378828
0.076804727
0.073542332
0.069961769
0.066352456
0.063027145
0.060349243
0.058598251
0.05802413
0.058794734
0.061019655
0.064679983
0.069641042
0.075658191
0.082397249
0.089424083
0.09629043
0.102510685
0.1076905
0.11150411
0.113677539
0.1141162
0.112831498
0.110021374
0.105901068
0.100864509
0.095236042
0.089397976
0.083675393
0.078353234
0.073659067
0.069743152
0.066693305
0.064500514
0.063145929
0.06257273
0.062724524
0.063520267
0.064778434
0.066353526
0.068104375
0.069869319
0.071532661
0.072967637
0.074097227
0.074937848
0.075538833
0.075931489
0.076316973
0.076767177
0.077426619
0.078397906
0.079662347
0.068104375
0.069869319
0.071532661
0.072967637
0.074097227
0.074937848
0.075538833
0.075931489
0.076316973
0.076767177
0.077426619
0.078397906
0.079662347
0.081205391
0.083015328
0.085042017
0.08730528
0.08981746
0.092602628
0.095818409
0.099698376
0.10451012
0.110561879
0.118136881
0.127423145
0.138467881
0.151150794
0.165167887
0.1800696
0.195146222
0.20965098
0.222755824
0.233656539
0.241672953
0.246295863
0.247194662
0.244301313
0.237829503
0.228188883
0.215992228
0.202015282
0.18709219
0.172042281
0.157599565
0.144348703
0.132755469
0.123117982
0.115501294
0.109739575
0.105597574
0.102691625
0.100597558
0.098897445
0.097132792
0.094991835
0.092229014
0.088706296
0.084473434
0.079624002
0.07436167
0.06906229
0.063997058
0.059432089
0.055645065
0.094991835
0.092229014
0.088706296
0.084473434
0.079624002
0.07436167
0.06906229
0.063997058
0.059432089
0.055645065
0.052844647
0.051148331
0.050590915
0.051022081
0.052228218
0.053995953
0.056078027
0.058230204
0.060259759
0.062037893
0.063456689
0.064505913
0.06518783
0.065602651
0.065814838
0.065867188
0.065870205
0.065801068
0.065666198
0.065445616
0.065080845
0.064494089
0.063591466
0.062314216
0.060646642
0.058603297
0.056253359
0.05372821
0.051232191
0.048964828
0.047115339
0.045940948
0.045615681
0.046285324
0.048011323
0.050803419
0.054492194
0.058912694
0.06379065
0.068802064
0.073668575
0.078114599
0.081878116
0.084814176
0.086783753
0.087791876
0.08796268
0.087470463
0.086619614
0.085738872
0.085194965
0.085374338
0.086643477
0.089290429
0.073668575
0.078114599
0.081878116
0.084814176
0.086783753
0.087791876
0.08796268
0.087470463
0.086619614
0.085738872
0.085194965
0.085374338
0.086643477
0.089290429
0.093480426
0.099321583
0.106768152
0.115626472
0.125380657
0.135518671
0.145315823
0.154060848
0.161038062
0.165584188
0.167327435
0.166008974
0.161884111
0.155572672
0.147931449
0.140046396
0.133395597
0.129198296
0.128759398
0.133057693
0.142784973
0.158147078
0.178840028
0.204184373
0.233098068
0.264132539
0.295815023
0.326567952
0.354985551
0.379853009
0.40028823
0.415670206
0.425696722
0.430332779
0.429686269
0.424062258
0.413827454
0.399375446
0.381145451
0.359572461
0.335088944
0.308251971
0.279631791
0.249964561
0.219955127
0.190368956
0.161973108
0.135501438
0.111572827
0.09059399
0.09059399
0.072849674
0.058417057
0.047299064
0.039136613
0.033585688
0.030180899
0.028527268
0.028251839
0.028908778
0.030351168
0.032266409
0.03450051
0.037059019
0.039931058
0.042935351
0.046124881
0.049344525
0.05251891
0.055525287
0.05827811
0.060702969
0.062680485
0.064127724
0.065020088
0.065308775
0.065022956
0.064182105
0.062869851
0.06119467
0.059284276
0.057286271
0.055363653
0.053678025
0.052338883
0.051396048
0.050889191
0.050772865
0.050922511
0.051199361
0.05141196
0.051348243
0.050806571
0.049685618
0.047937311
0.04559153
0.042813785
0.03982288
0.036893587
0.034348422
0.032556756
0.031784731
0.032199642
0.033951199
0.036987278
0.041168975
0.046317532
0.05219653
0.058523509
0.065045088
0.071600398
0.078041076
0.084161068
0.089819788
0.05219653
0.058523509
0.065045088
0.071600398
0.078041076
0.084161068
0.089819788
0.094975277
0.099420767
0.103151255
0.106048204
0.108123962
0.109449219
0.110159831
0.110583826
0.111159801
0.112381451
0.114901394
0.119337335
0.126046226
0.135367122
0.147315988
0.161620969
0.177782135
0.194990011
0.212371283
0.229084558
0.244226442
0.257099822
0.267400802
0.274945647
0.279970339
0.282961954
0.284606594
0.285602513
0.286642868
0.288294528
0.290862347
0.294406868
0.298733653
0.303337632
0.307593409
0.310849229
0.312449146
0.311761891
0.308423132
0.302191648
0.293024045
0.281091773
0.266675723
0.250254656
0.232265377
0.213243496
0.193788234
0.174337073
0.155235048
0.137001619
0.119911288
0.104345943
0.090585364
0.078898416
0.069496968
0.062447896
0.057790387
0.104345943
0.090585364
0.078898416
0.069496968
0.062447896
0.057790387
0.055524006
0.055451252
0.057398571
0.061136587
0.066210988
0.072242913
0.078775384
0.085351576
0.091591848
0.097101193
0.101551921
0.104815492
0.106819324
0.107489632
0.106975686
0.105416079
0.103056419
0.100156047
0.097052781
0.093990354
0.091148797
0.088650744
0.086523611
0.084678214
0.083015305
0.081377087
0.079613161
0.077564082
0.075135663
0.072281654
0.069011934
0.065425946
0.061656891
0.057892103
0.054268219
0.051007255
0.048289306
0.046201945
0.044835992
0.044271523
0.044440658
0.045344024
0.046938933
0.049150019
0.051884681
0.055100682
0.058724333
0.062649885
0.066843098
0.071231076
0.075768084
0.080419548
0.085082224
0.089629648
0.094008424
0.098090262
0.101729776
0.104847968
0.062649885
0.066843098
0.071231076
0.075768084
0.080419548
0.085082224
0.089629648
0.094008424
0.098090262
0.101729776
0.104847968
0.107383073
0.109250334
0.110373926
0.11089856
0.110905196
0.110422112
0.109743021
0.109054594
0.108569143
0.108650126
0.109544075
0.111616219
0.115091326
0.120359742
0.127522443
0.136538167
0.147557066
0.160372851
0.174765738
0.19041255
0.206910623
0.223862148
0.240777665
0.257337069
0.273231867
0.288280922
0.302383236
0.315584726
0.327946904
0.339559826
0.350502502
0.360742601
0.37012624
0.378346888
0.384923421
0.389245087
0.390652179
0.388490373
0.382157591
0.371283409
0.355689343
0.335553216
0.311350641
0.283848009
0.254036834
0.223117442
0.192417423
0.16313952
0.136365103
0.113039217
0.093785683
0.078834994
0.068268221
0.078834994
0.068268221
0.061881345
0.059075611
0.059287268
0.061814921
0.065838795
0.07071808
0.075772221
0.080555037
0.084571771
0.087675165
0.08977662
0.090623806
0.090360253
0.089024872
0.086737023
0.083688532
0.080001543
0.075928328
0.071568301
0.067123833
0.062712555
0.058507645
0.054622453
0.051174296
0.048235995
0.045873272
0.044115252
0.04293541
0.042277655
0.042062123
0.042159951
0.042435977
0.042754074
0.043019304
0.043120052
0.04298887
0.042593233
0.041970369
0.041140492
0.040139884
0.039058528
0.037986484
0.037054938
0.036382311
0.036032133
0.036103671
0.03665717
0.03771557
0.039284099
0.041364252
0.043954006
0.04702313
0.050461169
0.054119106
0.057869875
0.061606723
0.065203653
0.068630555
0.071910124
0.075138961
0.078500039
0.082266385
0.050461169
0.054119106
0.057869875
0.061606723
0.065203653
0.068630555
0.071910124
0.075138961
0.078500039
0.082266385
0.086720566
0.092016985
0.098277399
0.105657244
0.114074109
0.123295551
0.133040964
0.142947011
0.152701476
0.162033674
0.170758912
0.178850036
0.186452411
0.193885847
0.201570146
0.209956967
0.219405904
0.230081335
0.242023197
0.254869295
0.268036924
0.280694179
0.291859334
0.300433354
0.30552968
0.306386331
0.302534808
0.293930059
0.280933718
0.264289181
0.245057033
0.224483904
0.203858039
0.184397317
0.167108419
0.152652913
0.141385692
0.133317246
0.12817877
0.125411185
0.124263958
0.123948666
0.123747069
0.123022439
0.121319343
0.118399935
0.114153616
0.108635365
0.102047939
0.094713484
0.086919465
0.078815917
0.070712388
0.062846449
0.041870906
0.036106776
0.031169155
0.027164498
0.024210793
0.022406882
0.02186568
0.022627328
0.024747928
0.028177389
0.032721528
0.038152733
0.04416707
0.050361042
0.05634519
0.061796051
0.066362466
0.069869412
0.072194515
0.073318049
0.073372411
0.072607105
0.071348498
0.069967704
0.068869064
0.068383574
0.068756649
0.070160298
0.07260416
0.075998105
0.080126019
0.084697193
0.08934889
0.093693433
0.097372632
0.100088489
0.101615304
0.101829312
0.100721469
0.098375916
0.094948997
0.090656057
0.085758163
0.080540345
0.075199445
0.069909794
0.064811948
0.05996351
0.055405723
0.051152528
0.047209269
0.043550866
0.040160446
0.037097959
0.034443186
0.032315806
0.03082055
0.030121557
0.030364557
0.031670794
0.034038008
0.037477722
0.041844782
0.046952177
0.074144057
0.077939768
0.080773605
0.082677512
0.083669097
0.083907624
0.08360862
0.082937154
0.082095028
0.081224212
0.080446738
0.079982005
0.079811823
0.079873251
0.080394666
0.081385756
0.083145462
0.08598581
0.09038956
0.09693187
0.106233898
0.118942699
0.135624924
0.156644512
0.182137419
0.211855752
0.245193858
0.28110705
0.318168785
0.35465343
0.388669546
0.418262296
0.441599843
0.457085905
0.463597938
0.46053267
0.447914416
0.426324374
0.3969245
0.36134981
0.32155974
0.279606174
0.237612941
0.197447729
0.160667778
0.128473006
0.101618318
0.080342967
0.064514691
0.053612551
0.046908204
0.04351423
0.0425563
0.043114898
0.04439927
0.045851114
0.047038106
0.047703021
0.047780472
0.047167393
0.046127187
0.044826657
0.043227787
0.041639877
0.053612551
0.046908204
0.04351423
0.0425563
0.043114898
0.04439927
0.045851114
0.047038106
0.047703021
0.047780472
0.047167393
0.046127187
0.044826657
0.043227787
0.041639877
0.040126206
0.038904858
0.038062102
0.03780663
0.038284145
0.039645956
0.042056135
0.045713313
0.050726681
0.057186959
0.065099357
0.074397256
0.084886291
0.096253546
0.108041224
0.119747897
0.130763621
0.140496933
0.148377084
0.153959308
0.156894306
0.157052291
0.154446275
0.149346491
0.142131574
0.133337924
0.123559657
0.113439384
0.103554332
0.094363902
0.086229449
0.079373888
0.073841375
0.069516937
0.0662372
0.063740431
0.061752249
0.060081005
0.058528628
0.056976744
0.055465357
0.054108672
0.053025376
0.052507124
0.052751384
0.054020487
0.056504001
0.060323301
0.065558342
0.056504001
0.060323301
0.065558342
0.072126721
0.07987583
0.088475831
0.09761346
0.106779848
0.115528044
0.123276107
0.129582257
0.133983888
0.135956924
0.135362664
0.132022683
0.125987779
0.117617431
0.107479261
0.096344619
0.085105693
0.07490837
0.066897552
0.062238572
0.061951671
0.066824273
0.077327623
0.093497477
0.114984711
0.140900312
0.169918725
0.200465153
0.230679538
0.258677845
0.282655257
0.301107538
0.312933856
0.317481328
0.314660415
0.304981304
0.289367451
0.269200679
0.246098806
0.221700173
0.197616458
0.175249465
0.155624296
0.13943641
0.126937361
0.118036049
0.112299822
0.10904115
0.107495976
0.106860868
0.106348739
0.105343032
0.103446089
0.100392715
0.096212051
0.091015349
0.085081111
0.078824136
0.072472721
0.066442663
0.061035817
0.052577422
0.0496666
0.047621221
0.046235089
0.045355913
0.04478177
0.044352639
0.043962809
0.043527328
0.0430861
0.04263819
0.042306882
0.042187647
0.042275973
0.042636215
0.043220408
0.043969732
0.044763796
0.045453299
0.045874544
0.04590163
0.045399394
0.044341652
0.042759116
0.040764228
0.038538988
0.03629693
0.034270391
0.032662879
0.031581052
0.031072784
0.031113829
0.03158735
0.032338344
0.033162087
0.033867609
0.034306776
0.034380402
0.034097563
0.033537636
0.032841188
0.032207721
0.03183704
0.031946767
0.032632627
0.03391447
0.035755407
0.038030056
0.040546131
0.043054546
0.045351819
0.047237177
0.04859132
0.049370723
0.049620606
0.049487135
0.049180894
0.048903349
0.048858089
0.049226601
0.050050536
0.051363991
0.053039092
0.054936459
0.053039092
0.054936459
0.056866527
0.058643614
0.06013793
0.061248342
0.062082397
0.062744193
0.063312062
0.064029107
0.065206508
0.067126577
0.06985891
0.073664524
0.07852873
0.08450194
0.091529122
0.099549522
0.108564871
0.118424761
0.129286835
0.141227605
0.154509339
0.169189339
0.185375329
0.203176735
0.222579446
0.243437575
0.265535474
0.288461963
0.311699372
0.334721789
0.356847947
0.377455565
0.395932887
0.411721811
0.424297527
0.433264557
0.438289438
0.439110627
0.43559132
0.427650068
0.415339833
0.39886095
0.378548734
0.354799839
0.328211509
0.29945859
0.269312425
0.238581503
0.20815035
0.178886661
0.1515589
0.126862567
0.105277588
0.087236292
0.073006008
0.06253518
0.055649657
0.052079609
0.051538533
0.053399873
0.057211269
0.062323931
0.052079609
0.051538533
0.053399873
0.057211269
0.062323931
0.068172659
0.074144813
0.079720816
0.084531505
0.088065718
0.090145739
0.090554577
0.08942448
0.086831749
0.082943017
0.078103737
0.072718605
0.067214083
0.062075252
0.057733028
0.054492528
0.052606679
0.052174466
0.053172338
0.055462878
0.058800348
0.062822083
0.067143804
0.071346435
0.074983082
0.077733085
0.0793127
0.079543004
0.078363076
0.075870002
0.07224628
0.067739555
0.062725385
0.057574996
0.052642684
0.048268833
0.04474812
0.042286268
0.04094099
0.040673006
0.041357126
0.042782373
0.044649937
0.046692858
0.048617698
0.050180396
0.051191464
0.051583236
0.051189461
0.050135924
0.048398228
0.045987409
0.043075627
0.039903573
0.036689858
0.033587717
0.031059898
0.029366888
0.028957132
0.036689858
0.033587717
0.031059898
0.029366888
0.028957132
0.030306211
0.033897393
0.040256686
0.049828446
0.062933509
0.079723146
0.100272128
0.124289732
0.151319196
0.180623231
0.211267223
0.242152717
0.272064959
0.299851979
0.324279745
0.34445617
0.35961887
0.369384419
0.373637486
0.372674703
0.367029705
0.357470587
0.34499763
0.330630733
0.315378732
0.30015592
0.285712282
0.272593646
0.26109433
0.251268104
0.242950551
0.235822725
0.229439039
0.223324364
0.216984596
0.209992172
0.201991755
0.192854071
0.182379562
0.170692568
0.157992619
0.144443986
0.130358391
0.116192402
0.10240649
0.089243677
0.077186749
0.066435412
0.057160082
0.049510852
0.043439906
0.03891984
0.035805074
0.033905032
0.032888175
0.032566687
0.032684194
0.033064174
0.033580586
0.10240649
0.089243677
0.077186749
0.066435412
0.057160082
0.049510852
0.043439906
0.03891984
0.035805074
0.033905032
0.032888175
0.032566687
0.032684194
0.033064174
0.033580586
0.034212574
0.035031159
0.036056308
0.037446252
0.03926412
0.041624261
0.044552697
0.048031729
0.051953787
0.05619363
0.060559179
0.064837895
0.068866701
0.072557313
0.075814868
0.078663073
0.081180676
0.083471561
0.085703757
0.0879999
0.090462284
0.093150139
0.096077915
0.09920816
0.102442331
0.105678166
0.10874891
0.111531189
0.11388326
0.115641057
0.116757718
0.117109064
0.116672771
0.115420977
0.113365797
0.110587801
0.107225848
0.103410392
0.099291995
0.095157097
0.091273635
0.08794416
0.085432019
0.08400303
0.083868118
0.085138333
0.087813409
0.091757554
0.096695819
0.085138333
0.087813409
0.091757554
0.096695819
0.102257015
0.108024982
0.11357518
0.118500798
0.122498976
0.125453638
0.127375602
0.128321518
0.128584985
0.128604972
0.128735815
0.129281843
0.130651339
0.133018606
0.136527291
0.141107504
0.146748915
0.153180335
0.160210868
0.167622271
0.175177254
0.1827833
0.190352894
0.197888188
0.205400334
0.21292447
0.220431956
0.227873569
0.235159084
0.242000781
0.248165634
0.253280936
0.257024776
0.259042511
0.259051253
0.256832073
0.252310927
0.245479828
0.236436912
0.225392152
0.212658044
0.198635221
0.183694
0.16823134
0.152675067
0.137442829
0.122907989
0.109420138
0.097290654
0.086785604
0.078053779
0.07123894
0.066388663
0.063404052
0.062153426
0.06241133
0.063767731
0.065718333
0.06792143
0.06998557
0.06241133
0.063767731
0.065718333
0.06792143
0.06998557
0.071488731
0.072270133
0.072214315
0.071397764
0.069960307
0.068271479
0.066668318
0.065545345
0.065266619
0.066118538
0.068310545
0.071905502
0.076836306
0.082926352
0.089871657
0.097288124
0.104760532
0.111904593
0.118339852
0.123758516
0.127924858
0.130734576
0.132099117
0.132042528
0.130624567
0.127942161
0.124080276
0.119168233
0.113336358
0.106686751
0.099413368
0.091671498
0.083653499
0.075592453
0.06774785
0.060407604
0.053840342
0.048289608
0.043989595
0.04105216
0.039568278
0.039501576
0.04075545
0.043127069
0.046358935
0.050162692
0.054154924
0.058037839
0.061454248
0.064175811
0.065961628
0.066747967
0.066448015
0.065084077
0.062741975
0.059572605
0.055797995
0.051594967
0.047250367
0.03563069
0.032787022
0.0306002
0.029125956
0.028327199
0.028113173
0.028366001
0.028962236
0.029845576
0.031073336
0.032772499
0.035097701
0.038335134
0.042879639
0.049033501
0.057093602
0.067321436
0.079775958
0.09444697
0.111038664
0.129175177
0.148225079
0.167304119
0.185672164
0.202423886
0.216845967
0.228319743
0.236508067
0.241305593
0.242864462
0.241649041
0.238303039
0.233611457
0.228408901
0.223503974
0.219561851
0.217047953
0.216192719
0.216943587
0.218999323
0.221837373
0.224760387
0.22698281
0.227752338
0.226404157
0.222401648
0.215465184
0.205519757
0.19278751
0.177681919
0.160768767
0.142711995
0.124296676
0.106292739
0.08934971
0.073990959
0.060579658
0.049258699
0.040120534
0.033097115
0.028030852
0.024632764
0.022759571
0.022149466
0.049258699
0.040120534
0.033097115
0.028030852
0.024632764
0.022759571
0.022149466
0.022589077
0.023989325
0.026255672
0.029431437
0.033488688
0.038476208
0.044444999
0.051203899
0.058682713
0.06660811
0.074757517
0.082805964
0.090419518
0.097252056
0.102950721
0.107224528
0.109873455
0.110771857
0.109899444
0.107357326
0.103337737
0.098130191
0.092072614
0.085555237
0.078966689
0.072664586
0.066930591
0.06196805
0.057890045
0.054714955
0.052343733
0.050604409
0.049292913
0.048203189
0.047103422
0.045841853
0.044316162
0.042494924
0.040458252
0.038315452
0.036188119
0.034248818
0.03262085
0.031453497
0.030788719
0.030672213
0.031062183
0.031877721
0.032951872
0.034155622
0.035429207
0.036653979
0.037736789
0.0388128
0.039883581
0.040977272
0.042267874
0.031877721
0.032951872
0.034155622
0.035429207
0.036653979
0.037736789
0.0388128
0.039883581
0.040977272
0.042267874
0.043928427
0.04614481
0.049169231
0.05325314
0.058660051
0.065625714
0.074354354
0.085039196
0.097715416
0.112409533
0.128892178
0.146669644
0.165299073
0.184007192
0.201924732
0.218191304
0.231951049
0.242454313
0.249298231
0.252303173
0.251650269
0.247950824
0.242145952
0.235394863
0.228995734
0.224245682
0.222246845
0.223777158
0.229178802
0.238282991
0.250434713
0.264516954
0.279082412
0.292445848
0.302963041
0.309160683
0.309931413
0.304571646
0.292960844
0.275512281
0.253028429
0.226732984
0.198180776
0.168996487
0.140617793
0.114470835
0.09164782
0.072768448
0.058189937
0.047893988
0.041565977
0.038681215
0.03856833
0.040430655
0.040430655
0.043520925
0.04706781
0.050477976
0.053229443
0.055021938
0.05572804
0.055179648
0.053563201
0.051132908
0.048133461
0.0449059
0.041901274
0.039384496
0.037722902
0.037182304
0.03790469
0.039918441
0.043212937
0.04761502
0.052927181
0.05884774
0.065040521
0.071204598
0.07704848
0.08231759
0.086857507
0.090525905
0.093309753
0.095164935
0.096147976
0.096305284
0.095671831
0.094311532
0.092290022
0.08970526
0.086672273
0.083336036
0.079873298
0.07653421
0.073564335
0.071222023
0.069769327
0.069387839
0.070229943
0.072316435
0.075575554
0.079805141
0.08471916
0.089911073
0.094944926
0.099360816
0.102715453
0.104631568
0.104819929
0.103158528
0.099688919
0.094587353
0.088170072
0.080919266
0.07323677
0.065688532
0.058740652
0.052693533
0.04234738
0.043516381
0.046000253
0.049665532
0.054395089
0.06004368
0.066566634
0.073980162
0.082386021
0.091840859
0.102435401
0.114239749
0.127248599
0.14141803
0.156557395
0.172330798
0.188364175
0.204169289
0.219171773
0.232728415
0.244226083
0.253077024
0.258789386
0.261007995
0.259575171
0.254514006
0.246045427
0.234614364
0.220798634
0.205316892
0.188953784
0.172463207
0.15653379
0.141756962
0.128599199
0.117313587
0.107982429
0.100561834
0.094894303
0.090767996
0.087843001
0.085849229
0.084493176
0.083540462
0.082876991
0.082277938
0.081690039
0.081038368
0.080261672
0.079351092
0.078333837
0.077108081
0.075576549
0.073741902
0.071553739
0.069014157
0.066194638
0.063259162
0.060374556
0.057703413
0.055443778
0.053718705
0.052621376
0.052237876
0.082876991
0.082277938
0.081690039
0.081038368
0.080261672
0.079351092
0.078333837
0.077108081
0.075576549
0.073741902
0.071553739
0.069014157
0.066194638
0.063259162
0.060374556
0.057703413
0.055443778
0.053718705
0.052621376
0.052237876
0.05252319
0.053403614
0.054772412
0.056497369
0.058387759
0.060303629
0.062125564
0.063779617
0.065246737
0.066559031
0.067800201
0.069028891
0.070302713
0.071657518
0.073061736
0.074470574
0.07574854
0.07668187
0.07709594
0.076804414
0.075636483
0.073484854
0.070329596
0.066254374
0.061437132
0.056125017
0.0506249
0.045282067
0.040422369
0.036366696
0.033371867
0.031579733
0.031045525
0.031735681
0.033498909
0.03608542
0.039225738
0.042590478
0.045893659
0.04885655
0.051269598
0.053016002
0.054079278
0.054463028
0.05061748
0.050105195
0.049900399
0.049831881
0.04977225
0.049734304
0.049620393
0.049572773
0.049862203
0.050885393
0.053119706
0.057249073
0.063999038
0.074075792
0.087998343
0.106079277
0.128275006
0.154240534
0.183183976
0.213891369
0.244998188
0.274792181
0.301757463
0.324312728
0.341264555
0.351840452
0.355776964
0.353395937
0.345433272
0.333203225
0.318233891
0.302212291
0.286821178
0.273549957
0.263550531
0.257510578
0.255676813
0.257794835
0.263201712
0.270876072
0.279575736
0.287973521
0.294774655
0.298757802
0.299046591
0.295000501
0.286271146
0.272930893
0.255333199
0.23413899
0.210204009
0.184703118
0.158699044
0.133132907
0.109060497
0.087264739
0.068408065
0.052928679
0.041025482
0.03259817
0.027341194
0.024845167
0.024663073
0.026237664
0.052928679
0.041025482
0.03259817
0.027341194
0.024845167
0.024663073
0.026237664
0.028994043
0.032443421
0.036197272
0.040044065
0.043707923
0.047216134
0.05044628
0.053591082
0.056675061
0.05978042
0.062997137
0.066359029
0.069965424
0.073748886
0.077746712
0.081896861
0.086076302
0.090170145
0.094041073
0.09752335
0.100453249
0.102676223
0.104056048
0.104493592
0.103950379
0.102410792
0.099953622
0.096689787
0.092734125
0.088277406
0.083518302
0.078631072
0.073778044
0.06910639
0.064750976
0.060830257
0.057429807
0.054621068
0.052474137
0.050983338
0.050173716
0.050070802
0.050668194
0.051901819
0.053715947
0.056043069
0.058734249
0.061674333
0.064774727
0.067872326
0.070873017
0.07372909
0.076360641
0.078646592
0.080579602
0.082156134
0.083384889
0.070873017
0.07372909
0.076360641
0.078646592
0.080579602
0.082156134
0.083384889
0.084354824
0.08511376
0.085695981
0.086208568
0.0868266
0.08768561
0.088928708
0.090789494
0.093448339
0.09706842
0.101790257
0.10773851
0.11493403
0.123325055
0.132811035
0.143116528
0.153942651
0.164921725
0.175628292
0.185580029
0.19434554
0.201478822
0.206677093
0.209667295
0.210320956
0.208609328
0.204642698
0.198704436
0.191134256
0.182322874
0.172760704
0.162847881
0.153011036
0.143586756
0.134841931
0.126905043
0.119804723
0.113520503
0.107951448
0.102914779
0.098269296
0.093907058
0.089701455
0.085672769
0.081880306
0.078326148
0.075064643
0.072224768
0.069826507
0.067957006
0.066622409
0.065723349
0.065095058
0.064591896
0.064072124
0.063340284
0.062266444
0.053792157
0.050838154
0.047776273
0.044777176
0.042025838
0.039575787
0.037612675
0.036267468
0.035560812
0.035658962
0.036598306
0.038532076
0.041549727
0.04579387
0.051378574
0.058393082
0.066880402
0.076784381
0.087952169
0.100095423
0.112787519
0.125505659
0.1376517
0.148572265
0.157570179
0.164053317
0.167565476
0.167846727
0.164843427
0.158784094
0.150107414
0.139449197
0.127556378
0.115308749
0.103498525
0.092800158
0.083761006
0.076732009
0.07181817
0.068893183
0.067733064
0.067941438
0.069062096
0.07068435
0.072488881
0.074240303
0.075807404
0.077208228
0.078494801
0.079840396
0.0813147
0.083022588
0.084968405
0.087024353
0.088877768
0.090286259
0.09101819
0.090871142
0.089865235
0.088160865
0.08617992
0.084502841
0.083817365
0.084867603
